20.0000	311.0000
20.0154	315.0000
20.0308	314.0000
20.0462	293.0000
20.0616	308.0000
20.0770	303.0000
20.0923	305.0000
20.1077	295.0000
20.1231	307.0000
20.1385	328.0000
20.1539	297.0000
20.1693	314.0000
20.1847	295.0000
20.2001	309.0000
20.2155	295.0000
20.2309	307.0000
20.2463	318.0000
20.2617	303.0000
20.2770	305.0000
20.2924	331.0000
20.3078	290.0000
20.3232	316.0000
20.3386	284.0000
20.3540	301.0000
20.3694	310.0000
20.3848	317.0000
20.4002	311.0000
20.4156	295.0000
20.4310	263.0000
20.4464	298.0000
20.4617	298.0000
20.4771	317.0000
20.4925	312.0000
20.5079	285.0000
20.5233	283.0000
20.5387	322.0000
20.5541	322.0000
20.5695	303.0000
20.5849	307.0000
20.6003	311.0000
20.6157	285.0000
20.6310	308.0000
20.6464	277.0000
20.6618	304.0000
20.6772	281.0000
20.6926	276.0000
20.7080	298.0000
20.7234	292.0000
20.7388	282.0000
20.7542	292.0000
20.7696	310.0000
20.7850	312.0000
20.8004	286.0000
20.8157	309.0000
20.8311	287.0000
20.8465	301.0000
20.8619	293.0000
20.8773	281.0000
20.8927	287.0000
20.9081	265.0000
20.9235	299.0000
20.9389	303.0000
20.9543	302.0000
20.9697	269.0000
20.9851	311.0000
21.0004	323.0000
21.0158	289.0000
21.0312	247.0000
21.0466	283.0000
21.0620	282.0000
21.0774	292.0000
21.0928	306.0000
21.1082	313.0000
21.1236	270.0000
21.1390	306.0000
21.1544	263.0000
21.1697	303.0000
21.1851	305.0000
21.2005	270.0000
21.2159	295.0000
21.2313	260.0000
21.2467	280.0000
21.2621	291.0000
21.2775	266.0000
21.2929	275.0000
21.3083	290.0000
21.3237	276.0000
21.3391	304.0000
21.3544	257.0000
21.3698	298.0000
21.3852	270.0000
21.4006	285.0000
21.4160	273.0000
21.4314	301.0000
21.4468	305.0000
21.4622	289.0000
21.4776	275.0000
21.4930	290.0000
21.5084	276.0000
21.5237	265.0000
21.5391	272.0000
21.5545	279.0000
21.5699	278.0000
21.5853	264.0000
21.6007	256.0000
21.6161	288.0000
21.6315	270.0000
21.6469	250.0000
21.6623	285.0000
21.6777	244.0000
21.6931	270.0000
21.7084	275.0000
21.7238	269.0000
21.7392	295.0000
21.7546	290.0000
21.7700	289.0000
21.7854	248.0000
21.8008	339.0000
21.8162	272.0000
21.8316	275.0000
21.8470	271.0000
21.8624	249.0000
21.8778	268.0000
21.8931	283.0000
21.9085	263.0000
21.9239	276.0000
21.9393	277.0000
21.9547	267.0000
21.9701	273.0000
21.9855	237.0000
22.0009	293.0000
22.0163	283.0000
22.0317	278.0000
22.0471	285.0000
22.0624	286.0000
22.0778	293.0000
22.0932	267.0000
22.1086	270.0000
22.1240	257.0000
22.1394	272.0000
22.1548	254.0000
22.1702	269.0000
22.1856	260.0000
22.2010	277.0000
22.2164	280.0000
22.2318	270.0000
22.2471	282.0000
22.2625	286.0000
22.2779	294.0000
22.2933	276.0000
22.3087	277.0000
22.3241	248.0000
22.3395	267.0000
22.3549	266.0000
22.3703	288.0000
22.3857	257.0000
22.4011	251.0000
22.4165	254.0000
22.4318	260.0000
22.4472	277.0000
22.4626	287.0000
22.4780	242.0000
22.4934	246.0000
22.5088	244.0000
22.5242	267.0000
22.5396	245.0000
22.5550	277.0000
22.5704	275.0000
22.5858	269.0000
22.6011	217.0000
22.6165	265.0000
22.6319	259.0000
22.6473	268.0000
22.6627	246.0000
22.6781	271.0000
22.6935	261.0000
22.7089	283.0000
22.7243	237.0000
22.7397	277.0000
22.7551	265.0000
22.7705	245.0000
22.7858	271.0000
22.8012	245.0000
22.8166	256.0000
22.8320	287.0000
22.8474	259.0000
22.8628	240.0000
22.8782	247.0000
22.8936	235.0000
22.9090	245.0000
22.9244	248.0000
22.9398	280.0000
22.9552	248.0000
22.9705	260.0000
22.9859	270.0000
23.0013	262.0000
23.0167	256.0000
23.0321	264.0000
23.0475	226.0000
23.0629	278.0000
23.0783	228.0000
23.0937	273.0000
23.1091	249.0000
23.1245	270.0000
23.1398	238.0000
23.1552	236.0000
23.1706	260.0000
23.1860	230.0000
23.2014	241.0000
23.2168	237.0000
23.2322	229.0000
23.2476	224.0000
23.2630	230.0000
23.2784	266.0000
23.2938	259.0000
23.3092	247.0000
23.3245	256.0000
23.3399	232.0000
23.3553	218.0000
23.3707	255.0000
23.3861	237.0000
23.4015	252.0000
23.4169	269.0000
23.4323	256.0000
23.4477	227.0000
23.4631	244.0000
23.4785	266.0000
23.4939	212.0000
23.5092	243.0000
23.5246	245.0000
23.5400	250.0000
23.5554	236.0000
23.5708	248.0000
23.5862	241.0000
23.6016	235.0000
23.6170	244.0000
23.6324	220.0000
23.6478	237.0000
23.6632	247.0000
23.6785	244.0000
23.6939	232.0000
23.7093	229.0000
23.7247	271.0000
23.7401	252.0000
23.7555	225.0000
23.7709	255.0000
23.7863	266.0000
23.8017	291.0000
23.8171	265.0000
23.8325	284.0000
23.8479	264.0000
23.8632	316.0000
23.8786	298.0000
23.8940	271.0000
23.9094	276.0000
23.9248	285.0000
23.9402	263.0000
23.9556	279.0000
23.9710	272.0000
23.9864	268.0000
24.0018	246.0000
24.0172	234.0000
24.0325	258.0000
24.0479	254.0000
24.0633	257.0000
24.0787	269.0000
24.0941	248.0000
24.1095	271.0000
24.1249	273.0000
24.1403	284.0000
24.1557	263.0000
24.1711	256.0000
24.1865	274.0000
24.2019	265.0000
24.2172	272.0000
24.2326	250.0000
24.2480	278.0000
24.2634	269.0000
24.2788	248.0000
24.2942	249.0000
24.3096	240.0000
24.3250	257.0000
24.3404	257.0000
24.3558	236.0000
24.3712	235.0000
24.3866	243.0000
24.4019	236.0000
24.4173	215.0000
24.4327	205.0000
24.4481	240.0000
24.4635	239.0000
24.4789	236.0000
24.4943	242.0000
24.5097	224.0000
24.5251	241.0000
24.5405	220.0000
24.5559	231.0000
24.5712	220.0000
24.5866	217.0000
24.6020	220.0000
24.6174	231.0000
24.6328	217.0000
24.6482	231.0000
24.6636	210.0000
24.6790	243.0000
24.6944	239.0000
24.7098	210.0000
24.7252	202.0000
24.7406	193.0000
24.7559	218.0000
24.7713	219.0000
24.7867	221.0000
24.8021	212.0000
24.8175	240.0000
24.8329	217.0000
24.8483	205.0000
24.8637	237.0000
24.8791	232.0000
24.8945	228.0000
24.9099	219.0000
24.9253	216.0000
24.9406	183.0000
24.9560	206.0000
24.9714	230.0000
24.9868	193.0000
25.0022	204.0000
25.0176	225.0000
25.0330	217.0000
25.0484	196.0000
25.0638	192.0000
25.0792	223.0000
25.0946	206.0000
25.1099	255.0000
25.1253	213.0000
25.1407	212.0000
25.1561	215.0000
25.1715	220.0000
25.1869	228.0000
25.2023	216.0000
25.2177	237.0000
25.2331	241.0000
25.2485	203.0000
25.2639	203.0000
25.2793	239.0000
25.2946	211.0000
25.3100	190.0000
25.3254	228.0000
25.3408	243.0000
25.3562	229.0000
25.3716	215.0000
25.3870	212.0000
25.4024	206.0000
25.4178	229.0000
25.4332	215.0000
25.4486	219.0000
25.4640	192.0000
25.4793	218.0000
25.4947	201.0000
25.5101	220.0000
25.5255	195.0000
25.5409	201.0000
25.5563	211.0000
25.5717	213.0000
25.5871	228.0000
25.6025	233.0000
25.6179	241.0000
25.6333	201.0000
25.6486	201.0000
25.6640	206.0000
25.6794	202.0000
25.6948	232.0000
25.7102	223.0000
25.7256	211.0000
25.7410	204.0000
25.7564	189.0000
25.7718	205.0000
25.7872	228.0000
25.8026	226.0000
25.8180	173.0000
25.8333	205.0000
25.8487	213.0000
25.8641	215.0000
25.8795	217.0000
25.8949	210.0000
25.9103	217.0000
25.9257	200.0000
25.9411	210.0000
25.9565	203.0000
25.9719	199.0000
25.9873	213.0000
26.0027	193.0000
26.0180	210.0000
26.0334	204.0000
26.0488	211.0000
26.0642	200.0000
26.0796	216.0000
26.0950	195.0000
26.1104	195.0000
26.1258	196.0000
26.1412	201.0000
26.1566	202.0000
26.1720	200.0000
26.1873	193.0000
26.2027	217.0000
26.2181	194.0000
26.2335	215.0000
26.2489	196.0000
26.2643	200.0000
26.2797	203.0000
26.2951	208.0000
26.3105	194.0000
26.3259	209.0000
26.3413	223.0000
26.3567	201.0000
26.3720	199.0000
26.3874	217.0000
26.4028	218.0000
26.4182	202.0000
26.4336	204.0000
26.4490	218.0000
26.4644	209.0000
26.4798	210.0000
26.4952	209.0000
26.5106	216.0000
26.5260	210.0000
26.5413	198.0000
26.5567	202.0000
26.5721	184.0000
26.5875	197.0000
26.6029	208.0000
26.6183	192.0000
26.6337	171.0000
26.6491	203.0000
26.6645	186.0000
26.6799	183.0000
26.6953	210.0000
26.7107	189.0000
26.7260	187.0000
26.7414	190.0000
26.7568	169.0000
26.7722	219.0000
26.7876	190.0000
26.8030	197.0000
26.8184	206.0000
26.8338	179.0000
26.8492	199.0000
26.8646	186.0000
26.8800	213.0000
26.8954	213.0000
26.9107	224.0000
26.9261	192.0000
26.9415	190.0000
26.9569	204.0000
26.9723	210.0000
26.9877	204.0000
27.0031	194.0000
27.0185	194.0000
27.0339	197.0000
27.0493	197.0000
27.0647	193.0000
27.0800	183.0000
27.0954	174.0000
27.1108	183.0000
27.1262	202.0000
27.1416	183.0000
27.1570	187.0000
27.1724	222.0000
27.1878	196.0000
27.2032	222.0000
27.2186	214.0000
27.2340	200.0000
27.2494	208.0000
27.2647	190.0000
27.2801	226.0000
27.2955	203.0000
27.3109	193.0000
27.3263	191.0000
27.3417	219.0000
27.3571	206.0000
27.3725	179.0000
27.3879	210.0000
27.4033	214.0000
27.4187	213.0000
27.4341	247.0000
27.4494	230.0000
27.4648	218.0000
27.4802	251.0000
27.4956	213.0000
27.5110	229.0000
27.5264	211.0000
27.5418	215.0000
27.5572	206.0000
27.5726	215.0000
27.5880	206.0000
27.6034	221.0000
27.6187	193.0000
27.6341	202.0000
27.6495	170.0000
27.6649	214.0000
27.6803	209.0000
27.6957	165.0000
27.7111	192.0000
27.7265	177.0000
27.7419	194.0000
27.7573	177.0000
27.7727	171.0000
27.7881	199.0000
27.8034	182.0000
27.8188	171.0000
27.8342	218.0000
27.8496	208.0000
27.8650	181.0000
27.8804	199.0000
27.8958	214.0000
27.9112	171.0000
27.9266	196.0000
27.9420	184.0000
27.9574	196.0000
27.9728	203.0000
27.9881	188.0000
28.0035	184.0000
28.0189	175.0000
28.0343	215.0000
28.0497	209.0000
28.0651	212.0000
28.0805	184.0000
28.0959	194.0000
28.1113	192.0000
28.1267	187.0000
28.1421	197.0000
28.1574	177.0000
28.1728	175.0000
28.1882	183.0000
28.2036	179.0000
28.2190	192.0000
28.2344	192.0000
28.2498	178.0000
28.2652	221.0000
28.2806	197.0000
28.2960	185.0000
28.3114	218.0000
28.3268	205.0000
28.3421	212.0000
28.3575	205.0000
28.3729	213.0000
28.3883	199.0000
28.4037	180.0000
28.4191	189.0000
28.4345	195.0000
28.4499	182.0000
28.4653	164.0000
28.4807	166.0000
28.4961	210.0000
28.5115	175.0000
28.5268	193.0000
28.5422	183.0000
28.5576	170.0000
28.5730	196.0000
28.5884	151.0000
28.6038	187.0000
28.6192	180.0000
28.6346	182.0000
28.6500	174.0000
28.6654	154.0000
28.6808	191.0000
28.6961	170.0000
28.7115	180.0000
28.7269	175.0000
28.7423	204.0000
28.7577	194.0000
28.7731	173.0000
28.7885	193.0000
28.8039	170.0000
28.8193	186.0000
28.8347	182.0000
28.8501	176.0000
28.8655	166.0000
28.8808	182.0000
28.8962	189.0000
28.9116	185.0000
28.9270	182.0000
28.9424	199.0000
28.9578	188.0000
28.9732	174.0000
28.9886	193.0000
29.0040	174.0000
29.0194	170.0000
29.0348	186.0000
29.0501	159.0000
29.0655	201.0000
29.0809	203.0000
29.0963	194.0000
29.1117	166.0000
29.1271	154.0000
29.1425	148.0000
29.1579	184.0000
29.1733	159.0000
29.1887	176.0000
29.2041	166.0000
29.2195	185.0000
29.2348	174.0000
29.2502	225.0000
29.2656	179.0000
29.2810	173.0000
29.2964	144.0000
29.3118	183.0000
29.3272	185.0000
29.3426	187.0000
29.3580	186.0000
29.3734	158.0000
29.3888	171.0000
29.4042	178.0000
29.4195	171.0000
29.4349	164.0000
29.4503	179.0000
29.4657	174.0000
29.4811	182.0000
29.4965	178.0000
29.5119	204.0000
29.5273	163.0000
29.5427	178.0000
29.5581	165.0000
29.5735	177.0000
29.5888	160.0000
29.6042	191.0000
29.6196	171.0000
29.6350	162.0000
29.6504	180.0000
29.6658	144.0000
29.6812	150.0000
29.6966	172.0000
29.7120	177.0000
29.7274	174.0000
29.7428	184.0000
29.7582	180.0000
29.7735	185.0000
29.7889	174.0000
29.8043	167.0000
29.8197	181.0000
29.8351	160.0000
29.8505	162.0000
29.8659	179.0000
29.8813	151.0000
29.8967	174.0000
29.9121	155.0000
29.9275	196.0000
29.9429	157.0000
29.9582	171.0000
29.9736	187.0000
29.9890	174.0000
30.0044	186.0000
30.0198	179.0000
30.0352	180.0000
30.0506	168.0000
30.0660	152.0000
30.0814	162.0000
30.0968	162.0000
30.1122	156.0000
30.1275	157.0000
30.1429	157.0000
30.1583	176.0000
30.1737	166.0000
30.1891	155.0000
30.2045	189.0000
30.2199	164.0000
30.2353	160.0000
30.2507	150.0000
30.2661	179.0000
30.2815	164.0000
30.2969	152.0000
30.3122	179.0000
30.3276	164.0000
30.3430	146.0000
30.3584	151.0000
30.3738	156.0000
30.3892	165.0000
30.4046	186.0000
30.4200	145.0000
30.4354	172.0000
30.4508	152.0000
30.4662	154.0000
30.4816	183.0000
30.4969	171.0000
30.5123	189.0000
30.5277	180.0000
30.5431	157.0000
30.5585	199.0000
30.5739	180.0000
30.5893	177.0000
30.6047	156.0000
30.6201	144.0000
30.6355	155.0000
30.6509	181.0000
30.6662	175.0000
30.6816	170.0000
30.6970	179.0000
30.7124	172.0000
30.7278	170.0000
30.7432	143.0000
30.7586	159.0000
30.7740	159.0000
30.7894	146.0000
30.8048	147.0000
30.8202	167.0000
30.8356	164.0000
30.8509	177.0000
30.8663	151.0000
30.8817	165.0000
30.8971	159.0000
30.9125	175.0000
30.9279	154.0000
30.9433	158.0000
30.9587	165.0000
30.9741	134.0000
30.9895	166.0000
31.0049	157.0000
31.0203	180.0000
31.0356	193.0000
31.0510	149.0000
31.0664	155.0000
31.0818	180.0000
31.0972	179.0000
31.1126	158.0000
31.1280	161.0000
31.1434	179.0000
31.1588	162.0000
31.1742	186.0000
31.1896	156.0000
31.2049	137.0000
31.2203	160.0000
31.2357	171.0000
31.2511	168.0000
31.2665	178.0000
31.2819	161.0000
31.2973	186.0000
31.3127	167.0000
31.3281	173.0000
31.3435	170.0000
31.3589	187.0000
31.3743	170.0000
31.3896	164.0000
31.4050	175.0000
31.4204	170.0000
31.4358	141.0000
31.4512	170.0000
31.4666	189.0000
31.4820	169.0000
31.4974	139.0000
31.5128	161.0000
31.5282	167.0000
31.5436	153.0000
31.5589	161.0000
31.5743	162.0000
31.5897	145.0000
31.6051	177.0000
31.6205	161.0000
31.6359	172.0000
31.6513	159.0000
31.6667	174.0000
31.6821	146.0000
31.6975	158.0000
31.7129	182.0000
31.7283	158.0000
31.7436	150.0000
31.7590	168.0000
31.7744	147.0000
31.7898	180.0000
31.8052	157.0000
31.8206	164.0000
31.8360	166.0000
31.8514	147.0000
31.8668	161.0000
31.8822	164.0000
31.8976	142.0000
31.9130	165.0000
31.9283	172.0000
31.9437	135.0000
31.9591	162.0000
31.9745	176.0000
31.9899	172.0000
32.0053	155.0000
32.0207	177.0000
32.0361	139.0000
32.0515	166.0000
32.0669	154.0000
32.0823	176.0000
32.0976	162.0000
32.1130	160.0000
32.1284	158.0000
32.1438	171.0000
32.1592	137.0000
32.1746	167.0000
32.1900	143.0000
32.2054	158.0000
32.2208	201.0000
32.2362	159.0000
32.2516	170.0000
32.2670	156.0000
32.2823	171.0000
32.2977	159.0000
32.3131	159.0000
32.3285	142.0000
32.3439	148.0000
32.3593	168.0000
32.3747	168.0000
32.3901	165.0000
32.4055	161.0000
32.4209	149.0000
32.4363	180.0000
32.4517	181.0000
32.4670	144.0000
32.4824	191.0000
32.4978	153.0000
32.5132	129.0000
32.5286	169.0000
32.5440	160.0000
32.5594	169.0000
32.5748	169.0000
32.5902	176.0000
32.6056	133.0000
32.6210	139.0000
32.6363	166.0000
32.6517	154.0000
32.6671	157.0000
32.6825	167.0000
32.6979	174.0000
32.7133	182.0000
32.7287	148.0000
32.7441	156.0000
32.7595	167.0000
32.7749	182.0000
32.7903	164.0000
32.8057	144.0000
32.8210	140.0000
32.8364	158.0000
32.8518	166.0000
32.8672	152.0000
32.8826	154.0000
32.8980	174.0000
32.9134	153.0000
32.9288	148.0000
32.9442	155.0000
32.9596	159.0000
32.9750	154.0000
32.9904	153.0000
33.0057	149.0000
33.0211	143.0000
33.0365	139.0000
33.0519	179.0000
33.0673	165.0000
33.0827	140.0000
33.0981	171.0000
33.1135	143.0000
33.1289	166.0000
33.1443	153.0000
33.1597	159.0000
33.1750	179.0000
33.1904	155.0000
33.2058	161.0000
33.2212	169.0000
33.2366	171.0000
33.2520	174.0000
33.2674	158.0000
33.2828	142.0000
33.2982	147.0000
33.3136	161.0000
33.3290	165.0000
33.3444	153.0000
33.3597	132.0000
33.3751	180.0000
33.3905	185.0000
33.4059	173.0000
33.4213	161.0000
33.4367	139.0000
33.4521	136.0000
33.4675	161.0000
33.4829	162.0000
33.4983	143.0000
33.5137	147.0000
33.5291	149.0000
33.5444	167.0000
33.5598	150.0000
33.5752	175.0000
33.5906	149.0000
33.6060	160.0000
33.6214	164.0000
33.6368	162.0000
33.6522	148.0000
33.6676	153.0000
33.6830	174.0000
33.6984	158.0000
33.7137	153.0000
33.7291	142.0000
33.7445	145.0000
33.7599	140.0000
33.7753	174.0000
33.7907	148.0000
33.8061	153.0000
33.8215	137.0000
33.8369	164.0000
33.8523	131.0000
33.8677	151.0000
33.8831	176.0000
33.8984	150.0000
33.9138	157.0000
33.9292	160.0000
33.9446	169.0000
33.9600	146.0000
33.9754	160.0000
33.9908	167.0000
34.0062	152.0000
34.0216	152.0000
34.0370	156.0000
34.0524	156.0000
34.0677	154.0000
34.0831	168.0000
34.0985	140.0000
34.1139	154.0000
34.1293	168.0000
34.1447	139.0000
34.1601	166.0000
34.1755	147.0000
34.1909	169.0000
34.2063	172.0000
34.2217	150.0000
34.2371	170.0000
34.2524	156.0000
34.2678	174.0000
34.2832	168.0000
34.2986	148.0000
34.3140	172.0000
34.3294	197.0000
34.3448	154.0000
34.3602	183.0000
34.3756	165.0000
34.3910	179.0000
34.4064	171.0000
34.4218	192.0000
34.4371	202.0000
34.4525	155.0000
34.4679	164.0000
34.4833	170.0000
34.4987	159.0000
34.5141	180.0000
34.5295	186.0000
34.5449	172.0000
34.5603	196.0000
34.5757	172.0000
34.5911	186.0000
34.6064	156.0000
34.6218	147.0000
34.6372	185.0000
34.6526	181.0000
34.6680	168.0000
34.6834	156.0000
34.6988	139.0000
34.7142	165.0000
34.7296	166.0000
34.7450	125.0000
34.7604	171.0000
34.7758	158.0000
34.7911	166.0000
34.8065	154.0000
34.8219	138.0000
34.8373	155.0000
34.8527	150.0000
34.8681	179.0000
34.8835	167.0000
34.8989	170.0000
34.9143	152.0000
34.9297	149.0000
34.9451	160.0000
34.9605	151.0000
34.9758	170.0000
34.9912	150.0000
35.0066	175.0000
35.0220	171.0000
35.0374	164.0000
35.0528	165.0000
35.0682	161.0000
35.0836	168.0000
35.0990	139.0000
35.1144	152.0000
35.1298	159.0000
35.1451	178.0000
35.1605	167.0000
35.1759	153.0000
35.1913	175.0000
35.2067	129.0000
35.2221	170.0000
35.2375	148.0000
35.2529	165.0000
35.2683	153.0000
35.2837	171.0000
35.2991	172.0000
35.3145	156.0000
35.3298	154.0000
35.3452	191.0000
35.3606	134.0000
35.3760	140.0000
35.3914	151.0000
35.4068	167.0000
35.4222	158.0000
35.4376	156.0000
35.4530	144.0000
35.4684	155.0000
35.4838	140.0000
35.4992	155.0000
35.5145	141.0000
35.5299	146.0000
35.5453	136.0000
35.5607	156.0000
35.5761	170.0000
35.5915	144.0000
35.6069	171.0000
35.6223	167.0000
35.6377	161.0000
35.6531	150.0000
35.6685	182.0000
35.6838	165.0000
35.6992	178.0000
35.7146	132.0000
35.7300	173.0000
35.7454	179.0000
35.7608	151.0000
35.7762	156.0000
35.7916	166.0000
35.8070	163.0000
35.8224	156.0000
35.8378	145.0000
35.8532	143.0000
35.8685	153.0000
35.8839	148.0000
35.8993	181.0000
35.9147	156.0000
35.9301	157.0000
35.9455	150.0000
35.9609	131.0000
35.9763	142.0000
35.9917	158.0000
36.0071	145.0000
36.0225	141.0000
36.0379	160.0000
36.0532	151.0000
36.0686	126.0000
36.0840	147.0000
36.0994	147.0000
36.1148	135.0000
36.1302	159.0000
36.1456	156.0000
36.1610	139.0000
36.1764	166.0000
36.1918	140.0000
36.2072	159.0000
36.2225	159.0000
36.2379	166.0000
36.2533	155.0000
36.2687	147.0000
36.2841	150.0000
36.2995	152.0000
36.3149	139.0000
36.3303	142.0000
36.3457	147.0000
36.3611	138.0000
36.3765	148.0000
36.3919	131.0000
36.4072	135.0000
36.4226	136.0000
36.4380	164.0000
36.4534	151.0000
36.4688	170.0000
36.4842	158.0000
36.4996	138.0000
36.5150	170.0000
36.5304	128.0000
36.5458	178.0000
36.5612	153.0000
36.5765	153.0000
36.5919	151.0000
36.6073	158.0000
36.6227	175.0000
36.6381	178.0000
36.6535	158.0000
36.6689	168.0000
36.6843	173.0000
36.6997	185.0000
36.7151	188.0000
36.7305	197.0000
36.7459	181.0000
36.7612	194.0000
36.7766	175.0000
36.7920	165.0000
36.8074	187.0000
36.8228	146.0000
36.8382	168.0000
36.8536	155.0000
36.8690	146.0000
36.8844	152.0000
36.8998	178.0000
36.9152	150.0000
36.9306	150.0000
36.9459	148.0000
36.9613	146.0000
36.9767	151.0000
36.9921	155.0000
37.0075	171.0000
37.0229	183.0000
37.0383	152.0000
37.0537	157.0000
37.0691	136.0000
37.0845	148.0000
37.0999	153.0000
37.1152	161.0000
37.1306	150.0000
37.1460	159.0000
37.1614	137.0000
37.1768	141.0000
37.1922	146.0000
37.2076	157.0000
37.2230	143.0000
37.2384	140.0000
37.2538	157.0000
37.2692	163.0000
37.2846	131.0000
37.2999	145.0000
37.3153	153.0000
37.3307	148.0000
37.3461	139.0000
37.3615	156.0000
37.3769	146.0000
37.3923	180.0000
37.4077	178.0000
37.4231	167.0000
37.4385	155.0000
37.4539	168.0000
37.4693	161.0000
37.4846	154.0000
37.5000	168.0000
37.5154	146.0000
37.5308	158.0000
37.5462	180.0000
37.5616	168.0000
37.5770	162.0000
37.5924	159.0000
37.6078	150.0000
37.6232	150.0000
37.6386	142.0000
37.6539	143.0000
37.6693	167.0000
37.6847	154.0000
37.7001	160.0000
37.7155	127.0000
37.7309	152.0000
37.7463	148.0000
37.7617	122.0000
37.7771	163.0000
37.7925	150.0000
37.8079	159.0000
37.8233	151.0000
37.8386	159.0000
37.8540	152.0000
37.8694	153.0000
37.8848	160.0000
37.9002	146.0000
37.9156	160.0000
37.9310	172.0000
37.9464	151.0000
37.9618	164.0000
37.9772	162.0000
37.9926	169.0000
38.0080	148.0000
38.0233	167.0000
38.0387	180.0000
38.0541	177.0000
38.0695	168.0000
38.0849	204.0000
38.1003	166.0000
38.1157	194.0000
38.1311	180.0000
38.1465	215.0000
38.1619	230.0000
38.1773	234.0000
38.1926	221.0000
38.2080	253.0000
38.2234	319.0000
38.2388	301.0000
38.2542	341.0000
38.2696	382.0000
38.2850	365.0000
38.3004	458.0000
38.3158	553.0000
38.3312	572.0000
38.3466	670.0000
38.3620	753.0000
38.3773	934.0000
38.3927	925.0000
38.4081	1100.0000
38.4235	1232.0000
38.4389	1418.0000
38.4543	1842.0000
38.4697	2082.0000
38.4851	2087.0000
38.5005	1591.0000
38.5159	1059.0000
38.5313	949.0000
38.5467	976.0000
38.5620	1068.0000
38.5774	1134.0000
38.5928	901.0000
38.6082	543.0000
38.6236	370.0000
38.6390	304.0000
38.6544	278.0000
38.6698	231.0000
38.6852	233.0000
38.7006	203.0000
38.7160	196.0000
38.7313	203.0000
38.7467	180.0000
38.7621	214.0000
38.7775	189.0000
38.7929	172.0000
38.8083	154.0000
38.8237	146.0000
38.8391	163.0000
38.8545	183.0000
38.8699	167.0000
38.8853	153.0000
38.9007	147.0000
38.9160	156.0000
38.9314	173.0000
38.9468	180.0000
38.9622	174.0000
38.9776	177.0000
38.9930	164.0000
39.0084	168.0000
39.0238	145.0000
39.0392	159.0000
39.0546	161.0000
39.0700	167.0000
39.0853	149.0000
39.1007	151.0000
39.1161	162.0000
39.1315	143.0000
39.1469	163.0000
39.1623	166.0000
39.1777	143.0000
39.1931	145.0000
39.2085	144.0000
39.2239	149.0000
39.2393	161.0000
39.2547	144.0000
39.2700	167.0000
39.2854	144.0000
39.3008	145.0000
39.3162	148.0000
39.3316	160.0000
39.3470	167.0000
39.3624	163.0000
39.3778	172.0000
39.3932	156.0000
39.4086	148.0000
39.4240	159.0000
39.4394	150.0000
39.4547	130.0000
39.4701	153.0000
39.4855	154.0000
39.5009	135.0000
39.5163	125.0000
39.5317	152.0000
39.5471	158.0000
39.5625	148.0000
39.5779	137.0000
39.5933	143.0000
39.6087	144.0000
39.6240	148.0000
39.6394	170.0000
39.6548	140.0000
39.6702	157.0000
39.6856	149.0000
39.7010	143.0000
39.7164	172.0000
39.7318	162.0000
39.7472	166.0000
39.7626	158.0000
39.7780	138.0000
39.7934	141.0000
39.8087	157.0000
39.8241	144.0000
39.8395	165.0000
39.8549	162.0000
39.8703	162.0000
39.8857	151.0000
39.9011	155.0000
39.9165	140.0000
39.9319	121.0000
39.9473	168.0000
39.9627	177.0000
39.9781	170.0000
39.9934	153.0000
40.0088	183.0000
40.0242	178.0000
40.0396	165.0000
40.0550	157.0000
40.0704	162.0000
40.0858	202.0000
40.1012	211.0000
40.1166	191.0000
40.1320	250.0000
40.1474	267.0000
40.1627	322.0000
40.1781	364.0000
40.1935	405.0000
40.2089	429.0000
40.2243	475.0000
40.2397	349.0000
40.2551	272.0000
40.2705	235.0000
40.2859	223.0000
40.3013	185.0000
40.3167	192.0000
40.3321	181.0000
40.3474	190.0000
40.3628	160.0000
40.3782	141.0000
40.3936	152.0000
40.4090	169.0000
40.4244	151.0000
40.4398	143.0000
40.4552	129.0000
40.4706	147.0000
40.4860	144.0000
40.5014	139.0000
40.5168	139.0000
40.5321	149.0000
40.5475	144.0000
40.5629	144.0000
40.5783	148.0000
40.5937	127.0000
40.6091	143.0000
40.6245	147.0000
40.6399	153.0000
40.6553	132.0000
40.6707	130.0000
40.6861	151.0000
40.7014	138.0000
40.7168	170.0000
40.7322	123.0000
40.7476	153.0000
40.7630	134.0000
40.7784	129.0000
40.7938	129.0000
40.8092	168.0000
40.8246	153.0000
40.8400	151.0000
40.8554	163.0000
40.8708	175.0000
40.8861	151.0000
40.9015	138.0000
40.9169	168.0000
40.9323	163.0000
40.9477	174.0000
40.9631	149.0000
40.9785	153.0000
40.9939	164.0000
41.0093	154.0000
41.0247	177.0000
41.0401	160.0000
41.0555	142.0000
41.0708	131.0000
41.0862	149.0000
41.1016	144.0000
41.1170	142.0000
41.1324	136.0000
41.1478	180.0000
41.1632	152.0000
41.1786	137.0000
41.1940	143.0000
41.2094	156.0000
41.2248	170.0000
41.2401	163.0000
41.2555	163.0000
41.2709	151.0000
41.2863	148.0000
41.3017	160.0000
41.3171	165.0000
41.3325	149.0000
41.3479	153.0000
41.3633	183.0000
41.3787	132.0000
41.3941	156.0000
41.4095	161.0000
41.4248	182.0000
41.4402	189.0000
41.4556	186.0000
41.4710	158.0000
41.4864	139.0000
41.5018	159.0000
41.5172	174.0000
41.5326	174.0000
41.5480	154.0000
41.5634	169.0000
41.5788	172.0000
41.5941	136.0000
41.6095	145.0000
41.6249	162.0000
41.6403	178.0000
41.6557	133.0000
41.6711	156.0000
41.6865	150.0000
41.7019	162.0000
41.7173	151.0000
41.7327	152.0000
41.7481	160.0000
41.7635	144.0000
41.7788	166.0000
41.7942	162.0000
41.8096	146.0000
41.8250	142.0000
41.8404	166.0000
41.8558	170.0000
41.8712	169.0000
41.8866	162.0000
41.9020	159.0000
41.9174	165.0000
41.9328	151.0000
41.9482	153.0000
41.9635	161.0000
41.9789	163.0000
41.9943	162.0000
42.0097	170.0000
42.0251	156.0000
42.0405	143.0000
42.0559	166.0000
42.0713	162.0000
42.0867	188.0000
42.1021	202.0000
42.1175	190.0000
42.1328	170.0000
42.1482	173.0000
42.1636	188.0000
42.1790	218.0000
42.1944	213.0000
42.2098	244.0000
42.2252	215.0000
42.2406	189.0000
42.2560	184.0000
42.2714	191.0000
42.2868	205.0000
42.3022	185.0000
42.3175	199.0000
42.3329	202.0000
42.3483	174.0000
42.3637	203.0000
42.3791	180.0000
42.3945	166.0000
42.4099	205.0000
42.4253	168.0000
42.4407	188.0000
42.4561	175.0000
42.4715	173.0000
42.4869	169.0000
42.5022	207.0000
42.5176	198.0000
42.5330	189.0000
42.5484	189.0000
42.5638	203.0000
42.5792	227.0000
42.5946	214.0000
42.6100	204.0000
42.6254	209.0000
42.6408	209.0000
42.6562	258.0000
42.6715	287.0000
42.6869	292.0000
42.7023	346.0000
42.7177	341.0000
42.7331	378.0000
42.7485	435.0000
42.7639	491.0000
42.7793	444.0000
42.7947	392.0000
42.8101	262.0000
42.8255	229.0000
42.8409	216.0000
42.8562	220.0000
42.8716	195.0000
42.8870	206.0000
42.9024	186.0000
42.9178	176.0000
42.9332	208.0000
42.9486	227.0000
42.9640	180.0000
42.9794	176.0000
42.9948	202.0000
43.0102	182.0000
43.0256	201.0000
43.0409	214.0000
43.0563	216.0000
43.0717	235.0000
43.0871	211.0000
43.1025	221.0000
43.1179	216.0000
43.1333	203.0000
43.1487	198.0000
43.1641	186.0000
43.1795	170.0000
43.1949	202.0000
43.2102	182.0000
43.2256	198.0000
43.2410	185.0000
43.2564	203.0000
43.2718	220.0000
43.2872	206.0000
43.3026	182.0000
43.3180	230.0000
43.3334	201.0000
43.3488	179.0000
43.3642	209.0000
43.3796	216.0000
43.3949	195.0000
43.4103	219.0000
43.4257	231.0000
43.4411	266.0000
43.4565	267.0000
43.4719	263.0000
43.4873	280.0000
43.5027	314.0000
43.5181	351.0000
43.5335	326.0000
43.5489	300.0000
43.5643	252.0000
43.5796	288.0000
43.5950	257.0000
43.6104	281.0000
43.6258	265.0000
43.6412	320.0000
43.6566	303.0000
43.6720	245.0000
43.6874	280.0000
43.7028	238.0000
43.7182	229.0000
43.7336	238.0000
43.7489	215.0000
43.7643	223.0000
43.7797	245.0000
43.7951	225.0000
43.8105	240.0000
43.8259	220.0000
43.8413	239.0000
43.8567	220.0000
43.8721	219.0000
43.8875	263.0000
43.9029	218.0000
43.9183	214.0000
43.9336	218.0000
43.9490	239.0000
43.9644	256.0000
43.9798	245.0000
43.9952	248.0000
44.0106	261.0000
44.0260	292.0000
44.0414	315.0000
44.0568	313.0000
44.0722	309.0000
44.0876	331.0000
44.1029	332.0000
44.1183	337.0000
44.1337	312.0000
44.1491	297.0000
44.1645	293.0000
44.1799	348.0000
44.1953	307.0000
44.2107	336.0000
44.2261	357.0000
44.2415	327.0000
44.2569	408.0000
44.2723	413.0000
44.2876	450.0000
44.3030	428.0000
44.3184	496.0000
44.3338	502.0000
44.3492	625.0000
44.3646	639.0000
44.3800	704.0000
44.3954	843.0000
44.4108	956.0000
44.4262	1030.0000
44.4416	1102.0000
44.4570	1304.0000
44.4723	1433.0000
44.4877	1694.0000
44.5031	2046.0000
44.5185	2540.0000
44.5339	2799.0000
44.5493	3305.0000
44.5647	3777.0000
44.5801	4835.0000
44.5955	5433.0000
44.6109	6394.0000
44.6263	8643.0000
44.6416	11086.0000
44.6570	14634.0000
44.6724	18999.0000
44.6878	24113.0000
44.7032	31563.0000
44.7186	40962.0000
44.7340	40842.0000
44.7494	27350.0000
44.7648	15310.0000
44.7802	12554.0000
44.7956	13013.0000
44.8110	15310.0000
44.8263	19941.0000
44.8417	23048.0000
44.8571	19443.0000
44.8725	10705.0000
44.8879	5215.0000
44.9033	3153.0000
44.9187	2336.0000
44.9341	1856.0000
44.9495	1478.0000
44.9649	1249.0000
44.9803	1115.0000
44.9957	1018.0000
45.0110	985.0000
45.0264	800.0000
45.0418	717.0000
45.0572	671.0000
45.0726	582.0000
45.0880	510.0000
45.1034	504.0000
45.1188	504.0000
45.1342	422.0000
45.1496	417.0000
45.1650	384.0000
45.1803	377.0000
45.1957	416.0000
45.2111	342.0000
45.2265	351.0000
45.2419	342.0000
45.2573	354.0000
45.2727	325.0000
45.2881	323.0000
45.3035	333.0000
45.3189	296.0000
45.3343	304.0000
45.3497	295.0000
45.3650	321.0000
45.3804	272.0000
45.3958	316.0000
45.4112	284.0000
45.4266	298.0000
45.4420	290.0000
45.4574	287.0000
45.4728	265.0000
45.4882	262.0000
45.5036	262.0000
45.5190	253.0000
45.5344	247.0000
45.5497	282.0000
45.5651	259.0000
45.5805	268.0000
45.5959	254.0000
45.6113	281.0000
45.6267	240.0000
45.6421	256.0000
45.6575	250.0000
45.6729	238.0000
45.6883	248.0000
45.7037	241.0000
45.7190	281.0000
45.7344	260.0000
45.7498	238.0000
45.7652	266.0000
45.7806	222.0000
45.7960	239.0000
45.8114	238.0000
45.8268	196.0000
45.8422	230.0000
45.8576	229.0000
45.8730	246.0000
45.8884	229.0000
45.9037	259.0000
45.9191	244.0000
45.9345	220.0000
45.9499	230.0000
45.9653	233.0000
45.9807	216.0000
45.9961	229.0000
46.0115	233.0000
46.0269	235.0000
46.0423	227.0000
46.0577	229.0000
46.0731	216.0000
46.0884	239.0000
46.1038	222.0000
46.1192	194.0000
46.1346	228.0000
46.1500	210.0000
46.1654	216.0000
46.1808	239.0000
46.1962	231.0000
46.2116	245.0000
46.2270	208.0000
46.2424	202.0000
46.2577	189.0000
46.2731	212.0000
46.2885	218.0000
46.3039	215.0000
46.3193	226.0000
46.3347	203.0000
46.3501	199.0000
46.3655	214.0000
46.3809	173.0000
46.3963	235.0000
46.4117	214.0000
46.4271	220.0000
46.4424	213.0000
46.4578	212.0000
46.4732	197.0000
46.4886	206.0000
46.5040	247.0000
46.5194	198.0000
46.5348	193.0000
46.5502	195.0000
46.5656	180.0000
46.5810	194.0000
46.5964	211.0000
46.6117	182.0000
46.6271	214.0000
46.6425	200.0000
46.6579	182.0000
46.6733	188.0000
46.6887	194.0000
46.7041	228.0000
46.7195	220.0000
46.7349	195.0000
46.7503	217.0000
46.7657	242.0000
46.7811	202.0000
46.7964	210.0000
46.8118	235.0000
46.8272	222.0000
46.8426	221.0000
46.8580	195.0000
46.8734	213.0000
46.8888	221.0000
46.9042	210.0000
46.9196	213.0000
46.9350	215.0000
46.9504	215.0000
46.9658	215.0000
46.9811	213.0000
46.9965	210.0000
47.0119	202.0000
47.0273	192.0000
47.0427	211.0000
47.0581	196.0000
47.0735	205.0000
47.0889	184.0000
47.1043	174.0000
47.1197	201.0000
47.1351	191.0000
47.1504	176.0000
47.1658	189.0000
47.1812	188.0000
47.1966	216.0000
47.2120	196.0000
47.2274	203.0000
47.2428	201.0000
47.2582	197.0000
47.2736	172.0000
47.2890	172.0000
47.3044	191.0000
47.3198	182.0000
47.3351	183.0000
47.3505	183.0000
47.3659	177.0000
47.3813	181.0000
47.3967	174.0000
47.4121	172.0000
47.4275	192.0000
47.4429	176.0000
47.4583	180.0000
47.4737	177.0000
47.4891	159.0000
47.5045	180.0000
47.5198	188.0000
47.5352	181.0000
47.5506	184.0000
47.5660	186.0000
47.5814	162.0000
47.5968	156.0000
47.6122	189.0000
47.6276	182.0000
47.6430	164.0000
47.6584	160.0000
47.6738	159.0000
47.6891	167.0000
47.7045	165.0000
47.7199	162.0000
47.7353	162.0000
47.7507	168.0000
47.7661	163.0000
47.7815	165.0000
47.7969	182.0000
47.8123	178.0000
47.8277	159.0000
47.8431	175.0000
47.8585	147.0000
47.8738	175.0000
47.8892	171.0000
47.9046	169.0000
47.9200	186.0000
47.9354	146.0000
47.9508	188.0000
47.9662	172.0000
47.9816	151.0000
47.9970	183.0000
48.0124	157.0000
48.0278	163.0000
48.0432	183.0000
48.0585	175.0000
48.0739	160.0000
48.0893	172.0000
48.1047	158.0000
48.1201	148.0000
48.1355	139.0000
48.1509	156.0000
48.1663	146.0000
48.1817	166.0000
48.1971	156.0000
48.2125	147.0000
48.2278	172.0000
48.2432	157.0000
48.2586	145.0000
48.2740	172.0000
48.2894	157.0000
48.3048	121.0000
48.3202	155.0000
48.3356	173.0000
48.3510	137.0000
48.3664	161.0000
48.3818	173.0000
48.3972	162.0000
48.4125	150.0000
48.4279	150.0000
48.4433	161.0000
48.4587	170.0000
48.4741	158.0000
48.4895	161.0000
48.5049	132.0000
48.5203	164.0000
48.5357	158.0000
48.5511	147.0000
48.5665	164.0000
48.5819	127.0000
48.5972	160.0000
48.6126	152.0000
48.6280	130.0000
48.6434	153.0000
48.6588	134.0000
48.6742	166.0000
48.6896	148.0000
48.7050	170.0000
48.7204	131.0000
48.7358	128.0000
48.7512	179.0000
48.7665	168.0000
48.7819	158.0000
48.7973	131.0000
48.8127	181.0000
48.8281	148.0000
48.8435	193.0000
48.8589	169.0000
48.8743	165.0000
48.8897	189.0000
48.9051	133.0000
48.9205	186.0000
48.9359	177.0000
48.9512	143.0000
48.9666	158.0000
48.9820	157.0000
48.9974	165.0000
49.0128	166.0000
49.0282	153.0000
49.0436	149.0000
49.0590	144.0000
49.0744	145.0000
49.0898	140.0000
49.1052	121.0000
49.1205	159.0000
49.1359	138.0000
49.1513	139.0000
49.1667	145.0000
49.1821	145.0000
49.1975	126.0000
49.2129	128.0000
49.2283	131.0000
49.2437	160.0000
49.2591	135.0000
49.2745	133.0000
49.2899	149.0000
49.3052	130.0000
49.3206	143.0000
49.3360	130.0000
49.3514	137.0000
49.3668	144.0000
49.3822	122.0000
49.3976	127.0000
49.4130	144.0000
49.4284	135.0000
49.4438	117.0000
49.4592	133.0000
49.4746	141.0000
49.4899	145.0000
49.5053	121.0000
49.5207	134.0000
49.5361	110.0000
49.5515	122.0000
49.5669	156.0000
49.5823	122.0000
49.5977	120.0000
49.6131	128.0000
49.6285	129.0000
49.6439	114.0000
49.6592	124.0000
49.6746	114.0000
49.6900	136.0000
49.7054	129.0000
49.7208	124.0000
49.7362	121.0000
49.7516	118.0000
49.7670	117.0000
49.7824	123.0000
49.7978	128.0000
49.8132	111.0000
49.8286	146.0000
49.8439	133.0000
49.8593	119.0000
49.8747	134.0000
49.8901	124.0000
49.9055	121.0000
49.9209	140.0000
49.9363	119.0000
49.9517	120.0000
49.9671	142.0000
49.9825	100.0000
49.9979	106.0000
50.0133	120.0000
50.0286	123.0000
50.0440	109.0000
50.0594	129.0000
50.0748	129.0000
50.0902	119.0000
50.1056	128.0000
50.1210	110.0000
50.1364	131.0000
50.1518	130.0000
50.1672	138.0000
50.1826	115.0000
50.1979	122.0000
50.2133	112.0000
50.2287	121.0000
50.2441	131.0000
50.2595	122.0000
50.2749	124.0000
50.2903	114.0000
50.3057	109.0000
50.3211	123.0000
50.3365	121.0000
50.3519	110.0000
50.3673	94.0000
50.3826	114.0000
50.3980	113.0000
50.4134	105.0000
50.4288	133.0000
50.4442	123.0000
50.4596	110.0000
50.4750	127.0000
50.4904	128.0000
50.5058	105.0000
50.5212	106.0000
50.5366	112.0000
50.5520	107.0000
50.5673	117.0000
50.5827	114.0000
50.5981	107.0000
50.6135	134.0000
50.6289	117.0000
50.6443	104.0000
50.6597	121.0000
50.6751	105.0000
50.6905	103.0000
50.7059	105.0000
50.7213	111.0000
50.7366	101.0000
50.7520	130.0000
50.7674	118.0000
50.7828	103.0000
50.7982	103.0000
50.8136	99.0000
50.8290	112.0000
50.8444	99.0000
50.8598	104.0000
50.8752	89.0000
50.8906	108.0000
50.9060	87.0000
50.9213	107.0000
50.9367	120.0000
50.9521	111.0000
50.9675	102.0000
50.9829	95.0000
50.9983	106.0000
51.0137	89.0000
51.0291	109.0000
51.0445	93.0000
51.0599	109.0000
51.0753	115.0000
51.0907	106.0000
51.1060	120.0000
51.1214	106.0000
51.1368	117.0000
51.1522	97.0000
51.1676	95.0000
51.1830	99.0000
51.1984	98.0000
51.2138	107.0000
51.2292	99.0000
51.2446	101.0000
51.2600	111.0000
51.2753	90.0000
51.2907	105.0000
51.3061	85.0000
51.3215	99.0000
51.3369	112.0000
51.3523	103.0000
51.3677	107.0000
51.3831	87.0000
51.3985	87.0000
51.4139	88.0000
51.4293	116.0000
51.4447	99.0000
51.4600	113.0000
51.4754	94.0000
51.4908	84.0000
51.5062	100.0000
51.5216	115.0000
51.5370	117.0000
51.5524	98.0000
51.5678	85.0000
51.5832	101.0000
51.5986	97.0000
51.6140	89.0000
51.6293	90.0000
51.6447	109.0000
51.6601	97.0000
51.6755	97.0000
51.6909	97.0000
51.7063	84.0000
51.7217	113.0000
51.7371	84.0000
51.7525	97.0000
51.7679	90.0000
51.7833	94.0000
51.7987	111.0000
51.8140	87.0000
51.8294	89.0000
51.8448	90.0000
51.8602	96.0000
51.8756	107.0000
51.8910	110.0000
51.9064	83.0000
51.9218	93.0000
51.9372	90.0000
51.9526	99.0000
51.9680	102.0000
51.9834	91.0000
51.9987	90.0000
52.0141	90.0000
52.0295	111.0000
52.0449	92.0000
52.0603	91.0000
52.0757	100.0000
52.0911	94.0000
52.1065	96.0000
52.1219	106.0000
52.1373	92.0000
52.1527	105.0000
52.1680	97.0000
52.1834	94.0000
52.1988	88.0000
52.2142	107.0000
52.2296	83.0000
52.2450	86.0000
52.2604	90.0000
52.2758	97.0000
52.2912	95.0000
52.3066	100.0000
52.3220	92.0000
52.3374	100.0000
52.3527	100.0000
52.3681	103.0000
52.3835	100.0000
52.3989	84.0000
52.4143	81.0000
52.4297	86.0000
52.4451	84.0000
52.4605	94.0000
52.4759	96.0000
52.4913	89.0000
52.5067	101.0000
52.5221	101.0000
52.5374	93.0000
52.5528	94.0000
52.5682	101.0000
52.5836	94.0000
52.5990	86.0000
52.6144	102.0000
52.6298	80.0000
52.6452	79.0000
52.6606	88.0000
52.6760	106.0000
52.6914	92.0000
52.7067	87.0000
52.7221	107.0000
52.7375	92.0000
52.7529	93.0000
52.7683	110.0000
52.7837	93.0000
52.7991	104.0000
52.8145	81.0000
52.8299	113.0000
52.8453	106.0000
52.8607	97.0000
52.8761	82.0000
52.8914	102.0000
52.9068	95.0000
52.9222	88.0000
52.9376	78.0000
52.9530	84.0000
52.9684	89.0000
52.9838	96.0000
52.9992	93.0000
53.0146	88.0000
53.0300	89.0000
53.0454	85.0000
53.0608	93.0000
53.0761	70.0000
53.0915	93.0000
53.1069	97.0000
53.1223	100.0000
53.1377	80.0000
53.1531	97.0000
53.1685	91.0000
53.1839	95.0000
53.1993	75.0000
53.2147	97.0000
53.2301	89.0000
53.2454	90.0000
53.2608	79.0000
53.2762	87.0000
53.2916	97.0000
53.3070	95.0000
53.3224	85.0000
53.3378	98.0000
53.3532	101.0000
53.3686	82.0000
53.3840	83.0000
53.3994	74.0000
53.4148	80.0000
53.4301	105.0000
53.4455	101.0000
53.4609	105.0000
53.4763	80.0000
53.4917	78.0000
53.5071	94.0000
53.5225	82.0000
53.5379	88.0000
53.5533	101.0000
53.5687	68.0000
53.5841	88.0000
53.5995	115.0000
53.6148	93.0000
53.6302	75.0000
53.6456	91.0000
53.6610	81.0000
53.6764	73.0000
53.6918	106.0000
53.7072	106.0000
53.7226	90.0000
53.7380	99.0000
53.7534	79.0000
53.7688	82.0000
53.7841	88.0000
53.7995	97.0000
53.8149	88.0000
53.8303	88.0000
53.8457	89.0000
53.8611	76.0000
53.8765	94.0000
53.8919	86.0000
53.9073	83.0000
53.9227	78.0000
53.9381	88.0000
53.9535	96.0000
53.9688	74.0000
53.9842	78.0000
53.9996	85.0000
54.0150	100.0000
54.0304	113.0000
54.0458	101.0000
54.0612	79.0000
54.0766	85.0000
54.0920	80.0000
54.1074	71.0000
54.1228	87.0000
54.1381	74.0000
54.1535	77.0000
54.1689	85.0000
54.1843	103.0000
54.1997	88.0000
54.2151	74.0000
54.2305	81.0000
54.2459	72.0000
54.2613	94.0000
54.2767	103.0000
54.2921	87.0000
54.3075	92.0000
54.3228	92.0000
54.3382	80.0000
54.3536	96.0000
54.3690	96.0000
54.3844	88.0000
54.3998	86.0000
54.4152	84.0000
54.4306	79.0000
54.4460	90.0000
54.4614	91.0000
54.4768	103.0000
54.4922	69.0000
54.5075	85.0000
54.5229	90.0000
54.5383	81.0000
54.5537	95.0000
54.5691	77.0000
54.5845	89.0000
54.5999	84.0000
54.6153	97.0000
54.6307	87.0000
54.6461	82.0000
54.6615	91.0000
54.6768	87.0000
54.6922	86.0000
54.7076	77.0000
54.7230	80.0000
54.7384	96.0000
54.7538	96.0000
54.7692	81.0000
54.7846	95.0000
54.8000	88.0000
54.8154	72.0000
54.8308	85.0000
54.8462	96.0000
54.8615	80.0000
54.8769	81.0000
54.8923	86.0000
54.9077	92.0000
54.9231	71.0000
54.9385	79.0000
54.9539	85.0000
54.9693	80.0000
54.9847	77.0000
55.0001	89.0000
55.0155	110.0000
55.0309	77.0000
55.0462	78.0000
55.0616	87.0000
55.0770	81.0000
55.0924	68.0000
55.1078	85.0000
55.1232	79.0000
55.1386	86.0000
55.1540	92.0000
55.1694	80.0000
55.1848	95.0000
55.2002	80.0000
55.2155	86.0000
55.2309	92.0000
55.2463	89.0000
55.2617	98.0000
55.2771	81.0000
55.2925	95.0000
55.3079	73.0000
55.3233	85.0000
55.3387	85.0000
55.3541	78.0000
55.3695	80.0000
55.3849	83.0000
55.4002	92.0000
55.4156	75.0000
55.4310	92.0000
55.4464	77.0000
55.4618	86.0000
55.4772	87.0000
55.4926	67.0000
55.5080	92.0000
55.5234	79.0000
55.5388	66.0000
55.5542	71.0000
55.5696	95.0000
55.5849	86.0000
55.6003	96.0000
55.6157	88.0000
55.6311	74.0000
55.6465	96.0000
55.6619	104.0000
55.6773	74.0000
55.6927	90.0000
55.7081	91.0000
55.7235	79.0000
55.7389	80.0000
55.7542	91.0000
55.7696	66.0000
55.7850	70.0000
55.8004	75.0000
55.8158	96.0000
55.8312	76.0000
55.8466	76.0000
55.8620	86.0000
55.8774	89.0000
55.8928	73.0000
55.9082	79.0000
55.9236	94.0000
55.9389	93.0000
55.9543	79.0000
55.9697	86.0000
55.9851	96.0000
56.0005	108.0000
56.0159	79.0000
56.0313	79.0000
56.0467	104.0000
56.0621	96.0000
56.0775	85.0000
56.0929	84.0000
56.1083	103.0000
56.1236	90.0000
56.1390	89.0000
56.1544	107.0000
56.1698	87.0000
56.1852	84.0000
56.2006	91.0000
56.2160	77.0000
56.2314	94.0000
56.2468	97.0000
56.2622	97.0000
56.2776	88.0000
56.2929	82.0000
56.3083	75.0000
56.3237	90.0000
56.3391	91.0000
56.3545	107.0000
56.3699	100.0000
56.3853	90.0000
56.4007	102.0000
56.4161	100.0000
56.4315	85.0000
56.4469	90.0000
56.4623	88.0000
56.4776	95.0000
56.4930	103.0000
56.5084	90.0000
56.5238	95.0000
56.5392	85.0000
56.5546	82.0000
56.5700	92.0000
56.5854	100.0000
56.6008	82.0000
56.6162	101.0000
56.6316	84.0000
56.6469	83.0000
56.6623	94.0000
56.6777	96.0000
56.6931	102.0000
56.7085	96.0000
56.7239	103.0000
56.7393	80.0000
56.7547	98.0000
56.7701	72.0000
56.7855	95.0000
56.8009	85.0000
56.8163	85.0000
56.8316	84.0000
56.8470	100.0000
56.8624	89.0000
56.8778	85.0000
56.8932	83.0000
56.9086	82.0000
56.9240	76.0000
56.9394	85.0000
56.9548	105.0000
56.9702	86.0000
56.9856	87.0000
57.0010	85.0000
57.0163	110.0000
57.0317	89.0000
57.0471	92.0000
57.0625	94.0000
57.0779	96.0000
57.0933	83.0000
57.1087	92.0000
57.1241	92.0000
57.1395	92.0000
57.1549	71.0000
57.1703	93.0000
57.1856	86.0000
57.2010	76.0000
57.2164	72.0000
57.2318	91.0000
57.2472	87.0000
57.2626	78.0000
57.2780	82.0000
57.2934	73.0000
57.3088	84.0000
57.3242	89.0000
57.3396	85.0000
57.3550	107.0000
57.3703	79.0000
57.3857	84.0000
57.4011	93.0000
57.4165	89.0000
57.4319	86.0000
57.4473	77.0000
57.4627	72.0000
57.4781	86.0000
57.4935	86.0000
57.5089	88.0000
57.5243	93.0000
57.5397	72.0000
57.5550	95.0000
57.5704	68.0000
57.5858	91.0000
57.6012	79.0000
57.6166	70.0000
57.6320	87.0000
57.6474	91.0000
57.6628	98.0000
57.6782	80.0000
57.6936	108.0000
57.7090	104.0000
57.7243	89.0000
57.7397	100.0000
57.7551	69.0000
57.7705	92.0000
57.7859	78.0000
57.8013	79.0000
57.8167	91.0000
57.8321	82.0000
57.8475	84.0000
57.8629	93.0000
57.8783	80.0000
57.8937	91.0000
57.9090	82.0000
57.9244	92.0000
57.9398	86.0000
57.9552	92.0000
57.9706	92.0000
57.9860	103.0000
58.0014	88.0000
58.0168	101.0000
58.0322	87.0000
58.0476	92.0000
58.0630	95.0000
58.0784	88.0000
58.0937	98.0000
58.1091	135.0000
58.1245	111.0000
58.1399	143.0000
58.1553	130.0000
58.1707	184.0000
58.1861	155.0000
58.2015	121.0000
58.2169	103.0000
58.2323	105.0000
58.2477	101.0000
58.2630	114.0000
58.2784	102.0000
58.2938	101.0000
58.3092	82.0000
58.3246	83.0000
58.3400	79.0000
58.3554	90.0000
58.3708	96.0000
58.3862	89.0000
58.4016	92.0000
58.4170	85.0000
58.4324	91.0000
58.4477	74.0000
58.4631	89.0000
58.4785	97.0000
58.4939	81.0000
58.5093	80.0000
58.5247	86.0000
58.5401	84.0000
58.5555	83.0000
58.5709	90.0000
58.5863	100.0000
58.6017	79.0000
58.6171	87.0000
58.6324	79.0000
58.6478	93.0000
58.6632	85.0000
58.6786	89.0000
58.6940	85.0000
58.7094	66.0000
58.7248	89.0000
58.7402	87.0000
58.7556	72.0000
58.7710	102.0000
58.7864	98.0000
58.8017	92.0000
58.8171	71.0000
58.8325	81.0000
58.8479	74.0000
58.8633	88.0000
58.8787	86.0000
58.8941	116.0000
58.9095	97.0000
58.9249	88.0000
58.9403	84.0000
58.9557	98.0000
58.9711	78.0000
58.9864	94.0000
59.0018	74.0000
59.0172	63.0000
59.0326	97.0000
59.0480	92.0000
59.0634	107.0000
59.0788	88.0000
59.0942	86.0000
59.1096	97.0000
59.1250	94.0000
59.1404	95.0000
59.1558	100.0000
59.1711	92.0000
59.1865	97.0000
59.2019	73.0000
59.2173	95.0000
59.2327	71.0000
59.2481	86.0000
59.2635	87.0000
59.2789	90.0000
59.2943	89.0000
59.3097	91.0000
59.3251	90.0000
59.3404	102.0000
59.3558	101.0000
59.3712	88.0000
59.3866	83.0000
59.4020	93.0000
59.4174	71.0000
59.4328	96.0000
59.4482	83.0000
59.4636	97.0000
59.4790	89.0000
59.4944	92.0000
59.5098	96.0000
59.5251	76.0000
59.5405	87.0000
59.5559	91.0000
59.5713	82.0000
59.5867	69.0000
59.6021	73.0000
59.6175	75.0000
59.6329	93.0000
59.6483	96.0000
59.6637	100.0000
59.6791	110.0000
59.6944	100.0000
59.7098	85.0000
59.7252	85.0000
59.7406	80.0000
59.7560	79.0000
59.7714	86.0000
59.7868	74.0000
59.8022	80.0000
59.8176	96.0000
59.8330	86.0000
59.8484	97.0000
59.8638	104.0000
59.8791	86.0000
59.8945	92.0000
59.9099	109.0000
59.9253	79.0000
59.9407	109.0000
59.9561	79.0000
59.9715	94.0000
59.9869	93.0000
60.0023	84.0000
60.0177	113.0000
60.0331	58.0000
60.0485	107.0000
60.0638	97.0000
60.0792	99.0000
60.0946	96.0000
60.1100	96.0000
60.1254	80.0000
60.1408	88.0000
60.1562	100.0000
60.1716	98.0000
60.1870	75.0000
60.2024	105.0000
60.2178	91.0000
60.2331	73.0000
60.2485	92.0000
60.2639	77.0000
60.2793	92.0000
60.2947	77.0000
60.3101	84.0000
60.3255	84.0000
60.3409	88.0000
60.3563	85.0000
60.3717	96.0000
60.3871	86.0000
60.4025	86.0000
60.4178	109.0000
60.4332	101.0000
60.4486	110.0000
60.4640	83.0000
60.4794	100.0000
60.4948	82.0000
60.5102	84.0000
60.5256	110.0000
60.5410	94.0000
60.5564	89.0000
60.5718	100.0000
60.5872	110.0000
60.6025	92.0000
60.6179	88.0000
60.6333	96.0000
60.6487	101.0000
60.6641	99.0000
60.6795	83.0000
60.6949	86.0000
60.7103	80.0000
60.7257	84.0000
60.7411	102.0000
60.7565	100.0000
60.7718	115.0000
60.7872	84.0000
60.8026	90.0000
60.8180	85.0000
60.8334	85.0000
60.8488	91.0000
60.8642	99.0000
60.8796	114.0000
60.8950	102.0000
60.9104	88.0000
60.9258	97.0000
60.9412	80.0000
60.9565	88.0000
60.9719	117.0000
60.9873	96.0000
61.0027	95.0000
61.0181	108.0000
61.0335	93.0000
61.0489	98.0000
61.0643	100.0000
61.0797	106.0000
61.0951	100.0000
61.1105	96.0000
61.1259	84.0000
61.1412	100.0000
61.1566	90.0000
61.1720	107.0000
61.1874	116.0000
61.2028	97.0000
61.2182	113.0000
61.2336	106.0000
61.2490	102.0000
61.2644	91.0000
61.2798	100.0000
61.2952	88.0000
61.3105	91.0000
61.3259	96.0000
61.3413	126.0000
61.3567	108.0000
61.3721	98.0000
61.3875	70.0000
61.4029	103.0000
61.4183	92.0000
61.4337	121.0000
61.4491	103.0000
61.4645	102.0000
61.4799	112.0000
61.4952	105.0000
61.5106	102.0000
61.5260	111.0000
61.5414	112.0000
61.5568	108.0000
61.5722	99.0000
61.5876	100.0000
61.6030	110.0000
61.6184	120.0000
61.6338	104.0000
61.6492	100.0000
61.6646	111.0000
61.6799	113.0000
61.6953	92.0000
61.7107	100.0000
61.7261	96.0000
61.7415	96.0000
61.7569	119.0000
61.7723	94.0000
61.7877	90.0000
61.8031	114.0000
61.8185	95.0000
61.8339	117.0000
61.8492	94.0000
61.8646	106.0000
61.8800	108.0000
61.8954	119.0000
61.9108	138.0000
61.9262	111.0000
61.9416	105.0000
61.9570	100.0000
61.9724	115.0000
61.9878	143.0000
62.0032	127.0000
62.0186	150.0000
62.0339	153.0000
62.0493	198.0000
62.0647	192.0000
62.0801	183.0000
62.0955	160.0000
62.1109	153.0000
62.1263	138.0000
62.1417	120.0000
62.1571	136.0000
62.1725	119.0000
62.1879	114.0000
62.2032	117.0000
62.2186	94.0000
62.2340	139.0000
62.2494	83.0000
62.2648	109.0000
62.2802	109.0000
62.2956	131.0000
62.3110	122.0000
62.3264	120.0000
62.3418	111.0000
62.3572	124.0000
62.3726	125.0000
62.3879	113.0000
62.4033	127.0000
62.4187	106.0000
62.4341	135.0000
62.4495	130.0000
62.4649	111.0000
62.4803	122.0000
62.4957	103.0000
62.5111	121.0000
62.5265	143.0000
62.5419	115.0000
62.5573	132.0000
62.5726	146.0000
62.5880	125.0000
62.6034	156.0000
62.6188	102.0000
62.6342	129.0000
62.6496	130.0000
62.6650	111.0000
62.6804	112.0000
62.6958	120.0000
62.7112	103.0000
62.7266	110.0000
62.7419	107.0000
62.7573	83.0000
62.7727	119.0000
62.7881	112.0000
62.8035	108.0000
62.8189	121.0000
62.8343	141.0000
62.8497	130.0000
62.8651	114.0000
62.8805	120.0000
62.8959	89.0000
62.9113	99.0000
62.9266	113.0000
62.9420	120.0000
62.9574	120.0000
62.9728	119.0000
62.9882	100.0000
63.0036	109.0000
63.0190	126.0000
63.0344	134.0000
63.0498	105.0000
63.0652	126.0000
63.0806	117.0000
63.0960	111.0000
63.1113	100.0000
63.1267	110.0000
63.1421	118.0000
63.1575	113.0000
63.1729	126.0000
63.1883	122.0000
63.2037	116.0000
63.2191	130.0000
63.2345	131.0000
63.2499	137.0000
63.2653	131.0000
63.2806	127.0000
63.2960	146.0000
63.3114	141.0000
63.3268	141.0000
63.3422	125.0000
63.3576	142.0000
63.3730	116.0000
63.3884	137.0000
63.4038	130.0000
63.4192	120.0000
63.4346	118.0000
63.4500	125.0000
63.4653	138.0000
63.4807	142.0000
63.4961	116.0000
63.5115	126.0000
63.5269	143.0000
63.5423	146.0000
63.5577	125.0000
63.5731	122.0000
63.5885	122.0000
63.6039	131.0000
63.6193	130.0000
63.6347	107.0000
63.6500	122.0000
63.6654	125.0000
63.6808	138.0000
63.6962	124.0000
63.7116	126.0000
63.7270	103.0000
63.7424	122.0000
63.7578	119.0000
63.7732	120.0000
63.7886	123.0000
63.8040	120.0000
63.8193	133.0000
63.8347	136.0000
63.8501	141.0000
63.8655	129.0000
63.8809	130.0000
63.8963	124.0000
63.9117	123.0000
63.9271	131.0000
63.9425	132.0000
63.9579	127.0000
63.9733	125.0000
63.9887	124.0000
64.0040	127.0000
64.0194	126.0000
64.0348	133.0000
64.0502	120.0000
64.0656	130.0000
64.0810	139.0000
64.0964	124.0000
64.1118	132.0000
64.1272	152.0000
64.1426	137.0000
64.1580	113.0000
64.1734	173.0000
64.1887	152.0000
64.2041	143.0000
64.2195	139.0000
64.2349	139.0000
64.2503	150.0000
64.2657	142.0000
64.2811	140.0000
64.2965	139.0000
64.3119	153.0000
64.3273	140.0000
64.3427	141.0000
64.3580	126.0000
64.3734	156.0000
64.3888	158.0000
64.4042	135.0000
64.4196	137.0000
64.4350	158.0000
64.4504	158.0000
64.4658	179.0000
64.4812	158.0000
64.4966	174.0000
64.5120	154.0000
64.5274	201.0000
64.5427	169.0000
64.5581	170.0000
64.5735	189.0000
64.5889	196.0000
64.6043	196.0000
64.6197	189.0000
64.6351	209.0000
64.6505	214.0000
64.6659	235.0000
64.6813	260.0000
64.6967	285.0000
64.7120	306.0000
64.7274	346.0000
64.7428	377.0000
64.7582	408.0000
64.7736	449.0000
64.7890	494.0000
64.8044	449.0000
64.8198	499.0000
64.8352	473.0000
64.8506	481.0000
64.8660	492.0000
64.8814	605.0000
64.8967	641.0000
64.9121	763.0000
64.9275	871.0000
64.9429	1180.0000
64.9583	1275.0000
64.9737	1741.0000
64.9891	2299.0000
65.0045	3077.0000
65.0199	4434.0000
65.0353	5694.0000
65.0507	8274.0000
65.0661	11145.0000
65.0814	14178.0000
65.0968	15157.0000
65.1122	11828.0000
65.1276	7324.0000
65.1430	4495.0000
65.1584	3171.0000
65.1738	2550.0000
65.1892	2736.0000
65.2046	3192.0000
65.2200	3937.0000
65.2354	5094.0000
65.2507	6744.0000
65.2661	8009.0000
65.2815	8189.0000
65.2969	6064.0000
65.3123	3796.0000
65.3277	2264.0000
65.3431	1417.0000
65.3585	1098.0000
65.3739	783.0000
65.3893	694.0000
65.4047	597.0000
65.4201	507.0000
65.4354	506.0000
65.4508	465.0000
65.4662	416.0000
65.4816	396.0000
65.4970	322.0000
65.5124	341.0000
65.5278	301.0000
65.5432	254.0000
65.5586	268.0000
65.5740	235.0000
65.5894	211.0000
65.6048	251.0000
65.6201	218.0000
65.6355	220.0000
65.6509	190.0000
65.6663	201.0000
65.6817	212.0000
65.6971	190.0000
65.7125	211.0000
65.7279	205.0000
65.7433	162.0000
65.7587	179.0000
65.7741	217.0000
65.7894	174.0000
65.8048	167.0000
65.8202	184.0000
65.8356	169.0000
65.8510	178.0000
65.8664	198.0000
65.8818	185.0000
65.8972	152.0000
65.9126	182.0000
65.9280	175.0000
65.9434	180.0000
65.9588	154.0000
65.9741	184.0000
65.9895	176.0000
66.0049	181.0000
66.0203	169.0000
66.0357	181.0000
66.0511	162.0000
66.0665	166.0000
66.0819	166.0000
66.0973	161.0000
66.1127	176.0000
66.1281	157.0000
66.1435	141.0000
66.1588	150.0000
66.1742	165.0000
66.1896	161.0000
66.2050	162.0000
66.2204	134.0000
66.2358	174.0000
66.2512	149.0000
66.2666	156.0000
66.2820	160.0000
66.2974	153.0000
66.3128	128.0000
66.3281	163.0000
66.3435	144.0000
66.3589	142.0000
66.3743	146.0000
66.3897	145.0000
66.4051	144.0000
66.4205	153.0000
66.4359	150.0000
66.4513	138.0000
66.4667	151.0000
66.4821	143.0000
66.4975	144.0000
66.5128	136.0000
66.5282	153.0000
66.5436	163.0000
66.5590	150.0000
66.5744	125.0000
66.5898	149.0000
66.6052	159.0000
66.6206	143.0000
66.6360	127.0000
66.6514	149.0000
66.6668	155.0000
66.6822	132.0000
66.6975	135.0000
66.7129	129.0000
66.7283	144.0000
66.7437	145.0000
66.7591	113.0000
66.7745	160.0000
66.7899	122.0000
66.8053	127.0000
66.8207	138.0000
66.8361	118.0000
66.8515	123.0000
66.8668	130.0000
66.8822	129.0000
66.8976	120.0000
66.9130	143.0000
66.9284	159.0000
66.9438	158.0000
66.9592	120.0000
66.9746	136.0000
66.9900	133.0000
67.0054	148.0000
67.0208	146.0000
67.0362	132.0000
67.0515	135.0000
67.0669	141.0000
67.0823	138.0000
67.0977	160.0000
67.1131	131.0000
67.1285	131.0000
67.1439	133.0000
67.1593	141.0000
67.1747	143.0000
67.1901	119.0000
67.2055	141.0000
67.2208	151.0000
67.2362	145.0000
67.2516	151.0000
67.2670	151.0000
67.2824	129.0000
67.2978	125.0000
67.3132	133.0000
67.3286	126.0000
67.3440	138.0000
67.3594	133.0000
67.3748	132.0000
67.3902	152.0000
67.4055	154.0000
67.4209	130.0000
67.4363	127.0000
67.4517	124.0000
67.4671	144.0000
67.4825	147.0000
67.4979	145.0000
67.5133	138.0000
67.5287	157.0000
67.5441	159.0000
67.5595	129.0000
67.5749	157.0000
67.5902	140.0000
67.6056	146.0000
67.6210	139.0000
67.6364	121.0000
67.6518	120.0000
67.6672	128.0000
67.6826	128.0000
67.6980	105.0000
67.7134	149.0000
67.7288	142.0000
67.7442	117.0000
67.7595	147.0000
67.7749	142.0000
67.7903	138.0000
67.8057	119.0000
67.8211	122.0000
67.8365	113.0000
67.8519	143.0000
67.8673	120.0000
67.8827	135.0000
67.8981	131.0000
67.9135	154.0000
67.9289	134.0000
67.9442	151.0000
67.9596	140.0000
67.9750	124.0000
67.9904	137.0000
68.0058	145.0000
68.0212	135.0000
68.0366	137.0000
68.0520	109.0000
68.0674	177.0000
68.0828	141.0000
68.0982	148.0000
68.1136	115.0000
68.1289	106.0000
68.1443	130.0000
68.1597	147.0000
68.1751	130.0000
68.1905	122.0000
68.2059	126.0000
68.2213	117.0000
68.2367	141.0000
68.2521	132.0000
68.2675	129.0000
68.2829	128.0000
68.2982	137.0000
68.3136	121.0000
68.3290	136.0000
68.3444	134.0000
68.3598	123.0000
68.3752	127.0000
68.3906	136.0000
68.4060	128.0000
68.4214	151.0000
68.4368	111.0000
68.4522	121.0000
68.4676	138.0000
68.4829	126.0000
68.4983	146.0000
68.5137	141.0000
68.5291	98.0000
68.5445	128.0000
68.5599	117.0000
68.5753	125.0000
68.5907	107.0000
68.6061	120.0000
68.6215	119.0000
68.6369	140.0000
68.6523	124.0000
68.6676	122.0000
68.6830	122.0000
68.6984	137.0000
68.7138	138.0000
68.7292	121.0000
68.7446	138.0000
68.7600	136.0000
68.7754	146.0000
68.7908	125.0000
68.8062	126.0000
68.8216	136.0000
68.8369	135.0000
68.8523	147.0000
68.8677	150.0000
68.8831	123.0000
68.8985	145.0000
68.9139	126.0000
68.9293	122.0000
68.9447	137.0000
68.9601	128.0000
68.9755	126.0000
68.9909	113.0000
69.0063	166.0000
69.0216	129.0000
69.0370	134.0000
69.0524	132.0000
69.0678	130.0000
69.0832	140.0000
69.0986	146.0000
69.1140	124.0000
69.1294	113.0000
69.1448	136.0000
69.1602	129.0000
69.1756	140.0000
69.1910	131.0000
69.2063	140.0000
69.2217	127.0000
69.2371	136.0000
69.2525	145.0000
69.2679	147.0000
69.2833	167.0000
69.2987	149.0000
69.3141	121.0000
69.3295	156.0000
69.3449	144.0000
69.3603	162.0000
69.3756	176.0000
69.3910	201.0000
69.4064	202.0000
69.4218	256.0000
69.4372	227.0000
69.4526	281.0000
69.4680	335.0000
69.4834	348.0000
69.4988	330.0000
69.5142	349.0000
69.5296	324.0000
69.5450	264.0000
69.5603	205.0000
69.5757	181.0000
69.5911	145.0000
69.6065	170.0000
69.6219	133.0000
69.6373	167.0000
69.6527	169.0000
69.6681	142.0000
69.6835	124.0000
69.6989	151.0000
69.7143	157.0000
69.7296	147.0000
69.7450	136.0000
69.7604	125.0000
69.7758	143.0000
69.7912	142.0000
69.8066	127.0000
69.8220	141.0000
69.8374	145.0000
69.8528	117.0000
69.8682	139.0000
69.8836	155.0000
69.8990	146.0000
69.9143	155.0000
69.9297	111.0000
69.9451	144.0000
69.9605	133.0000
69.9759	143.0000
69.9913	142.0000
70.0067	144.0000
70.0221	148.0000
70.0375	129.0000
70.0529	152.0000
70.0683	113.0000
70.0837	121.0000
70.0990	130.0000
70.1144	122.0000
70.1298	146.0000
70.1452	131.0000
70.1606	146.0000
70.1760	130.0000
70.1914	129.0000
70.2068	133.0000
70.2222	120.0000
70.2376	148.0000
70.2530	137.0000
70.2683	137.0000
70.2837	138.0000
70.2991	146.0000
70.3145	130.0000
70.3299	129.0000
70.3453	140.0000
70.3607	143.0000
70.3761	132.0000
70.3915	151.0000
70.4069	163.0000
70.4223	125.0000
70.4377	121.0000
70.4530	136.0000
70.4684	128.0000
70.4838	115.0000
70.4992	158.0000
70.5146	128.0000
70.5300	117.0000
70.5454	128.0000
70.5608	128.0000
70.5762	127.0000
70.5916	132.0000
70.6070	135.0000
70.6224	127.0000
70.6377	160.0000
70.6531	118.0000
70.6685	142.0000
70.6839	161.0000
70.6993	134.0000
70.7147	132.0000
70.7301	125.0000
70.7455	142.0000
70.7609	156.0000
70.7763	143.0000
70.7917	136.0000
70.8070	134.0000
70.8224	130.0000
70.8378	134.0000
70.8532	124.0000
70.8686	137.0000
70.8840	126.0000
70.8994	141.0000
70.9148	138.0000
70.9302	138.0000
70.9456	145.0000
70.9610	149.0000
70.9764	121.0000
70.9917	137.0000
71.0071	148.0000
71.0225	137.0000
71.0379	154.0000
71.0533	110.0000
71.0687	150.0000
71.0841	132.0000
71.0995	148.0000
71.1149	129.0000
71.1303	145.0000
71.1457	123.0000
71.1611	156.0000
71.1764	145.0000
71.1918	110.0000
71.2072	137.0000
71.2226	148.0000
71.2380	150.0000
71.2534	133.0000
71.2688	139.0000
71.2842	123.0000
71.2996	128.0000
71.3150	123.0000
71.3304	147.0000
71.3457	133.0000
71.3611	125.0000
71.3765	139.0000
71.3919	150.0000
71.4073	122.0000
71.4227	121.0000
71.4381	146.0000
71.4535	145.0000
71.4689	138.0000
71.4843	134.0000
71.4997	139.0000
71.5151	145.0000
71.5304	135.0000
71.5458	140.0000
71.5612	155.0000
71.5766	125.0000
71.5920	141.0000
71.6074	138.0000
71.6228	137.0000
71.6382	123.0000
71.6536	161.0000
71.6690	155.0000
71.6844	155.0000
71.6998	150.0000
71.7151	154.0000
71.7305	142.0000
71.7459	139.0000
71.7613	143.0000
71.7767	151.0000
71.7921	124.0000
71.8075	140.0000
71.8229	162.0000
71.8383	135.0000
71.8537	134.0000
71.8691	154.0000
71.8844	143.0000
71.8998	123.0000
71.9152	124.0000
71.9306	159.0000
71.9460	150.0000
71.9614	149.0000
71.9768	150.0000
71.9922	153.0000
72.0076	165.0000
72.0230	143.0000
72.0384	153.0000
72.0538	138.0000
72.0691	124.0000
72.0845	144.0000
72.0999	131.0000
72.1153	141.0000
72.1307	143.0000
72.1461	161.0000
72.1615	137.0000
72.1769	134.0000
72.1923	163.0000
72.2077	161.0000
72.2231	155.0000
72.2384	151.0000
72.2538	129.0000
72.2692	156.0000
72.2846	150.0000
72.3000	105.0000
72.3154	136.0000
72.3308	140.0000
72.3462	132.0000
72.3616	131.0000
72.3770	149.0000
72.3924	140.0000
72.4078	130.0000
72.4231	148.0000
72.4385	121.0000
72.4539	159.0000
72.4693	137.0000
72.4847	152.0000
72.5001	151.0000
72.5155	138.0000
72.5309	168.0000
72.5463	161.0000
72.5617	146.0000
72.5771	141.0000
72.5925	148.0000
72.6078	138.0000
72.6232	144.0000
72.6386	149.0000
72.6540	144.0000
72.6694	148.0000
72.6848	145.0000
72.7002	141.0000
72.7156	133.0000
72.7310	141.0000
72.7464	147.0000
72.7618	147.0000
72.7771	146.0000
72.7925	131.0000
72.8079	137.0000
72.8233	155.0000
72.8387	147.0000
72.8541	155.0000
72.8695	165.0000
72.8849	159.0000
72.9003	163.0000
72.9157	145.0000
72.9311	147.0000
72.9465	152.0000
72.9618	143.0000
72.9772	177.0000
72.9926	146.0000
73.0080	154.0000
73.0234	142.0000
73.0388	129.0000
73.0542	150.0000
73.0696	171.0000
73.0850	141.0000
73.1004	154.0000
73.1158	134.0000
73.1312	140.0000
73.1465	160.0000
73.1619	178.0000
73.1773	145.0000
73.1927	144.0000
73.2081	136.0000
73.2235	173.0000
73.2389	142.0000
73.2543	182.0000
73.2697	156.0000
73.2851	153.0000
73.3005	166.0000
73.3158	182.0000
73.3312	164.0000
73.3466	159.0000
73.3620	162.0000
73.3774	184.0000
73.3928	162.0000
73.4082	152.0000
73.4236	158.0000
73.4390	170.0000
73.4544	138.0000
73.4698	147.0000
73.4852	166.0000
73.5005	140.0000
73.5159	154.0000
73.5313	143.0000
73.5467	156.0000
73.5621	145.0000
73.5775	153.0000
73.5929	161.0000
73.6083	152.0000
73.6237	145.0000
73.6391	169.0000
73.6545	153.0000
73.6699	180.0000
73.6852	161.0000
73.7006	167.0000
73.7160	158.0000
73.7314	161.0000
73.7468	173.0000
73.7622	172.0000
73.7776	184.0000
73.7930	150.0000
73.8084	159.0000
73.8238	163.0000
73.8392	165.0000
73.8545	160.0000
73.8699	153.0000
73.8853	179.0000
73.9007	156.0000
73.9161	180.0000
73.9315	166.0000
73.9469	186.0000
73.9623	138.0000
73.9777	181.0000
73.9931	151.0000
74.0085	183.0000
74.0239	166.0000
74.0392	170.0000
74.0546	155.0000
74.0700	174.0000
74.0854	190.0000
74.1008	173.0000
74.1162	211.0000
74.1316	178.0000
74.1470	179.0000
74.1624	184.0000
74.1778	195.0000
74.1932	187.0000
74.2086	199.0000
74.2239	221.0000
74.2393	236.0000
74.2547	229.0000
74.2701	238.0000
74.2855	288.0000
74.3009	260.0000
74.3163	282.0000
74.3317	360.0000
74.3471	336.0000
74.3625	426.0000
74.3779	419.0000
74.3932	409.0000
74.4086	381.0000
74.4240	339.0000
74.4394	288.0000
74.4548	279.0000
74.4702	260.0000
74.4856	237.0000
74.5010	198.0000
74.5164	219.0000
74.5318	218.0000
74.5472	170.0000
74.5626	207.0000
74.5779	186.0000
74.5933	176.0000
74.6087	196.0000
74.6241	161.0000
74.6395	167.0000
74.6549	148.0000
74.6703	175.0000
74.6857	176.0000
74.7011	185.0000
74.7165	193.0000
74.7319	194.0000
74.7472	172.0000
74.7626	156.0000
74.7780	153.0000
74.7934	189.0000
74.8088	187.0000
74.8242	199.0000
74.8396	195.0000
74.8550	183.0000
74.8704	172.0000
74.8858	185.0000
74.9012	171.0000
74.9166	212.0000
74.9319	214.0000
74.9473	194.0000
74.9627	195.0000
74.9781	194.0000
74.9935	199.0000
75.0089	223.0000
75.0243	190.0000
75.0397	203.0000
75.0551	240.0000
75.0705	221.0000
75.0859	206.0000
75.1013	211.0000
75.1166	208.0000
75.1320	182.0000
75.1474	199.0000
75.1628	209.0000
75.1782	199.0000
75.1936	181.0000
75.2090	171.0000
75.2244	178.0000
75.2398	163.0000
75.2552	164.0000
75.2706	177.0000
75.2859	177.0000
75.3013	182.0000
75.3167	198.0000
75.3321	159.0000
75.3475	200.0000
75.3629	202.0000
75.3783	197.0000
75.3937	209.0000
75.4091	193.0000
75.4245	169.0000
75.4399	189.0000
75.4553	201.0000
75.4706	225.0000
75.4860	176.0000
75.5014	208.0000
75.5168	208.0000
75.5322	189.0000
75.5476	220.0000
75.5630	190.0000
75.5784	220.0000
75.5938	194.0000
75.6092	215.0000
75.6246	208.0000
75.6400	205.0000
75.6553	217.0000
75.6707	210.0000
75.6861	198.0000
75.7015	185.0000
75.7169	181.0000
75.7323	226.0000
75.7477	196.0000
75.7631	220.0000
75.7785	212.0000
75.7939	196.0000
75.8093	214.0000
75.8246	201.0000
75.8400	202.0000
75.8554	225.0000
75.8708	213.0000
75.8862	215.0000
75.9016	187.0000
75.9170	190.0000
75.9324	208.0000
75.9478	221.0000
75.9632	201.0000
75.9786	201.0000
75.9940	206.0000
76.0093	210.0000
76.0247	230.0000
76.0401	220.0000
76.0555	211.0000
76.0709	219.0000
76.0863	192.0000
76.1017	235.0000
76.1171	219.0000
76.1325	218.0000
76.1479	215.0000
76.1633	214.0000
76.1787	202.0000
76.1940	213.0000
76.2094	178.0000
76.2248	235.0000
76.2402	213.0000
76.2556	248.0000
76.2710	224.0000
76.2864	194.0000
76.3018	222.0000
76.3172	184.0000
76.3326	206.0000
76.3480	231.0000
76.3633	203.0000
76.3787	210.0000
76.3941	223.0000
76.4095	214.0000
76.4249	214.0000
76.4403	236.0000
76.4557	240.0000
76.4711	234.0000
76.4865	219.0000
76.5019	224.0000
76.5173	251.0000
76.5327	216.0000
76.5480	236.0000
76.5634	250.0000
76.5788	232.0000
76.5942	266.0000
76.6096	242.0000
76.6250	229.0000
76.6404	289.0000
76.6558	259.0000
76.6712	280.0000
76.6866	262.0000
76.7020	255.0000
76.7174	251.0000
76.7327	238.0000
76.7481	265.0000
76.7635	262.0000
76.7789	254.0000
76.7943	282.0000
76.8097	244.0000
76.8251	303.0000
76.8405	281.0000
76.8559	244.0000
76.8713	278.0000
76.8867	273.0000
76.9020	286.0000
76.9174	244.0000
76.9328	267.0000
76.9482	267.0000
76.9636	275.0000
76.9790	261.0000
76.9944	227.0000
77.0098	266.0000
77.0252	253.0000
77.0406	252.0000
77.0560	235.0000
77.0714	249.0000
77.0867	272.0000
77.1021	258.0000
77.1175	260.0000
77.1329	288.0000
77.1483	293.0000
77.1637	297.0000
77.1791	288.0000
77.1945	303.0000
77.2099	270.0000
77.2253	306.0000
77.2407	289.0000
77.2560	273.0000
77.2714	267.0000
77.2868	292.0000
77.3022	284.0000
77.3176	321.0000
77.3330	328.0000
77.3484	293.0000
77.3638	297.0000
77.3792	324.0000
77.3946	302.0000
77.4100	347.0000
77.4254	294.0000
77.4407	315.0000
77.4561	353.0000
77.4715	376.0000
77.4869	372.0000
77.5023	344.0000
77.5177	378.0000
77.5331	333.0000
77.5485	350.0000
77.5639	375.0000
77.5793	392.0000
77.5947	418.0000
77.6101	414.0000
77.6254	436.0000
77.6408	438.0000
77.6562	455.0000
77.6716	459.0000
77.6870	505.0000
77.7024	544.0000
77.7178	589.0000
77.7332	622.0000
77.7486	701.0000
77.7640	705.0000
77.7794	792.0000
77.7947	831.0000
77.8101	866.0000
77.8255	974.0000
77.8409	1045.0000
77.8563	1032.0000
77.8717	1104.0000
77.8871	1190.0000
77.9025	1210.0000
77.9179	1248.0000
77.9333	1367.0000
77.9487	1426.0000
77.9641	1494.0000
77.9794	1569.0000
77.9948	1696.0000
78.0102	1920.0000
78.0256	2201.0000
78.0410	2560.0000
78.0564	3174.0000
78.0718	3856.0000
78.0872	4900.0000
78.1026	6764.0000
78.1180	8868.0000
78.1334	12436.0000
78.1488	16624.0000
78.1641	21580.0000
78.1795	27468.0000
78.1949	33771.0000
78.2103	37309.0000
78.2257	35472.0000
78.2411	28068.0000
78.2565	19089.0000
78.2719	12693.0000
78.2873	9079.0000
78.3027	6929.0000
78.3181	6239.0000
78.3334	6227.0000
78.3488	6963.0000
78.3642	8252.0000
78.3796	10272.0000
78.3950	12554.0000
78.4104	15367.0000
78.4258	18745.0000
78.4412	20542.0000
78.4566	19690.0000
78.4720	15990.0000
78.4874	10918.0000
78.5028	7496.0000
78.5181	5140.0000
78.5335	3717.0000
78.5489	2709.0000
78.5643	2209.0000
78.5797	1950.0000
78.5951	1703.0000
78.6105	1405.0000
78.6259	1304.0000
78.6413	1231.0000
78.6567	1106.0000
78.6721	945.0000
78.6875	927.0000
78.7028	818.0000
78.7182	830.0000
78.7336	724.0000
78.7490	667.0000
78.7644	689.0000
78.7798	599.0000
78.7952	580.0000
78.8106	593.0000
78.8260	578.0000
78.8414	524.0000
78.8568	493.0000
78.8721	480.0000
78.8875	507.0000
78.9029	428.0000
78.9183	459.0000
78.9337	451.0000
78.9491	429.0000
78.9645	444.0000
78.9799	396.0000
78.9953	417.0000
79.0107	387.0000
79.0261	404.0000
79.0415	404.0000
79.0568	366.0000
79.0722	384.0000
79.0876	396.0000
79.1030	372.0000
79.1184	364.0000
79.1338	397.0000
79.1492	352.0000
79.1646	377.0000
79.1800	379.0000
79.1954	364.0000
79.2108	349.0000
79.2262	319.0000
79.2415	326.0000
79.2569	331.0000
79.2723	318.0000
79.2877	336.0000
79.3031	325.0000
79.3185	333.0000
79.3339	308.0000
79.3493	320.0000
79.3647	281.0000
79.3801	316.0000
79.3955	297.0000
79.4108	331.0000
79.4262	323.0000
79.4416	310.0000
79.4570	240.0000
79.4724	307.0000
79.4878	265.0000
79.5032	316.0000
79.5186	283.0000
79.5340	291.0000
79.5494	298.0000
79.5648	308.0000
79.5802	267.0000
79.5955	302.0000
79.6109	292.0000
79.6263	288.0000
79.6417	296.0000
79.6571	305.0000
79.6725	256.0000
79.6879	291.0000
79.7033	252.0000
79.7187	301.0000
79.7341	254.0000
79.7495	285.0000
79.7648	306.0000
79.7802	257.0000
79.7956	262.0000
79.8110	268.0000
79.8264	269.0000
79.8418	253.0000
79.8572	284.0000
79.8726	256.0000
79.8880	260.0000
79.9034	243.0000
79.9188	256.0000
79.9342	262.0000
79.9495	251.0000
79.9649	247.0000
79.9803	255.0000
79.9957	280.0000
80.0111	255.0000
80.0265	272.0000
80.0419	232.0000
80.0573	252.0000
80.0727	269.0000
80.0881	248.0000
80.1035	232.0000
80.1189	242.0000
80.1342	224.0000
80.1496	221.0000
80.1650	221.0000
80.1804	235.0000
80.1958	242.0000
80.2112	240.0000
80.2266	265.0000
80.2420	256.0000
80.2574	218.0000
80.2728	273.0000
80.2882	232.0000
80.3035	219.0000
80.3189	231.0000
80.3343	234.0000
80.3497	219.0000
80.3651	214.0000
80.3805	210.0000
80.3959	229.0000
80.4113	232.0000
80.4267	223.0000
80.4421	242.0000
80.4575	212.0000
80.4729	224.0000
80.4882	237.0000
80.5036	214.0000
80.5190	207.0000
80.5344	226.0000
80.5498	194.0000
80.5652	205.0000
80.5806	215.0000
80.5960	212.0000
80.6114	221.0000
80.6268	192.0000
80.6422	237.0000
80.6576	229.0000
80.6729	233.0000
80.6883	226.0000
80.7037	214.0000
80.7191	223.0000
80.7345	191.0000
80.7499	204.0000
80.7653	208.0000
80.7807	215.0000
80.7961	223.0000
80.8115	228.0000
80.8269	209.0000
80.8422	220.0000
80.8576	227.0000
80.8730	220.0000
80.8884	234.0000
80.9038	217.0000
80.9192	208.0000
80.9346	218.0000
80.9500	221.0000
80.9654	210.0000
80.9808	215.0000
80.9962	210.0000
81.0116	224.0000
81.0269	210.0000
81.0423	210.0000
81.0577	239.0000
81.0731	207.0000
81.0885	217.0000
81.1039	210.0000
81.1193	209.0000
81.1347	200.0000
81.1501	206.0000
81.1655	218.0000
81.1809	215.0000
81.1963	214.0000
81.2116	209.0000
81.2270	207.0000
81.2424	201.0000
81.2578	231.0000
81.2732	197.0000
81.2886	156.0000
81.3040	212.0000
81.3194	168.0000
81.3348	216.0000
81.3502	202.0000
81.3656	221.0000
81.3809	195.0000
81.3963	199.0000
81.4117	183.0000
81.4271	215.0000
81.4425	209.0000
81.4579	209.0000
81.4733	199.0000
81.4887	200.0000
81.5041	202.0000
81.5195	190.0000
81.5349	213.0000
81.5503	201.0000
81.5656	188.0000
81.5810	176.0000
81.5964	202.0000
81.6118	197.0000
81.6272	186.0000
81.6426	201.0000
81.6580	206.0000
81.6734	183.0000
81.6888	188.0000
81.7042	168.0000
81.7196	181.0000
81.7350	195.0000
81.7503	194.0000
81.7657	185.0000
81.7811	173.0000
81.7965	191.0000
81.8119	202.0000
81.8273	218.0000
81.8427	191.0000
81.8581	177.0000
81.8735	205.0000
81.8889	181.0000
81.9043	191.0000
81.9196	185.0000
81.9350	193.0000
81.9504	191.0000
81.9658	171.0000
81.9812	201.0000
81.9966	213.0000
82.0120	154.0000
82.0274	201.0000
82.0428	163.0000
82.0582	228.0000
82.0736	214.0000
82.0890	179.0000
82.1043	159.0000
82.1197	172.0000
82.1351	174.0000
82.1505	188.0000
82.1659	186.0000
82.1813	185.0000
82.1967	202.0000
82.2121	188.0000
82.2275	180.0000
82.2429	182.0000
82.2583	179.0000
82.2736	168.0000
82.2890	185.0000
82.3044	194.0000
82.3198	199.0000
82.3352	201.0000
82.3506	181.0000
82.3660	220.0000
82.3814	235.0000
82.3968	234.0000
82.4122	258.0000
82.4276	244.0000
82.4430	225.0000
82.4583	188.0000
82.4737	192.0000
82.4891	194.0000
82.5045	187.0000
82.5199	216.0000
82.5353	194.0000
82.5507	186.0000
82.5661	188.0000
82.5815	174.0000
82.5969	198.0000
82.6123	204.0000
82.6277	214.0000
82.6430	219.0000
82.6584	202.0000
82.6738	206.0000
82.6892	208.0000
82.7046	173.0000
82.7200	192.0000
82.7354	188.0000
82.7508	191.0000
82.7662	180.0000
82.7816	198.0000
82.7970	170.0000
82.8123	162.0000
82.8277	166.0000
82.8431	194.0000
82.8585	175.0000
82.8739	156.0000
82.8893	177.0000
82.9047	178.0000
82.9201	193.0000
82.9355	175.0000
82.9509	153.0000
82.9663	170.0000
82.9817	143.0000
82.9970	156.0000
83.0124	156.0000
83.0278	165.0000
83.0432	181.0000
83.0586	185.0000
83.0740	162.0000
83.0894	146.0000
83.1048	171.0000
83.1202	170.0000
83.1356	167.0000
83.1510	154.0000
83.1664	138.0000
83.1817	146.0000
83.1971	170.0000
83.2125	159.0000
83.2279	143.0000
83.2433	157.0000
83.2587	152.0000
83.2741	172.0000
83.2895	153.0000
83.3049	143.0000
83.3203	139.0000
83.3357	156.0000
83.3510	155.0000
83.3664	178.0000
83.3818	151.0000
83.3972	143.0000
83.4126	154.0000
83.4280	170.0000
83.4434	168.0000
83.4588	145.0000
83.4742	160.0000
83.4896	182.0000
83.5050	156.0000
83.5204	161.0000
83.5357	148.0000
83.5511	149.0000
83.5665	178.0000
83.5819	162.0000
83.5973	137.0000
83.6127	167.0000
83.6281	186.0000
83.6435	159.0000
83.6589	164.0000
83.6743	137.0000
83.6897	150.0000
83.7051	157.0000
83.7204	154.0000
83.7358	178.0000
83.7512	176.0000
83.7666	177.0000
83.7820	181.0000
83.7974	148.0000
83.8128	158.0000
83.8282	137.0000
83.8436	139.0000
83.8590	159.0000
83.8744	146.0000
83.8897	146.0000
83.9051	145.0000
83.9205	147.0000
83.9359	161.0000
83.9513	158.0000
83.9667	143.0000
83.9821	122.0000
83.9975	160.0000
84.0129	142.0000
84.0283	167.0000
84.0437	147.0000
84.0591	134.0000
84.0744	152.0000
84.0898	135.0000
84.1052	161.0000
84.1206	164.0000
84.1360	151.0000
84.1514	146.0000
84.1668	144.0000
84.1822	157.0000
84.1976	146.0000
84.2130	142.0000
84.2284	147.0000
84.2438	144.0000
84.2591	139.0000
84.2745	162.0000
84.2899	162.0000
84.3053	155.0000
84.3207	135.0000
84.3361	150.0000
84.3515	142.0000
84.3669	165.0000
84.3823	159.0000
84.3977	139.0000
84.4131	137.0000
84.4284	120.0000
84.4438	160.0000
84.4592	144.0000
84.4746	148.0000
84.4900	151.0000
84.5054	138.0000
84.5208	154.0000
84.5362	137.0000
84.5516	142.0000
84.5670	141.0000
84.5824	133.0000
84.5978	151.0000
84.6131	137.0000
84.6285	146.0000
84.6439	147.0000
84.6593	150.0000
84.6747	124.0000
84.6901	153.0000
84.7055	133.0000
84.7209	122.0000
84.7363	129.0000
84.7517	126.0000
84.7671	126.0000
84.7824	131.0000
84.7978	125.0000
84.8132	128.0000
84.8286	125.0000
84.8440	123.0000
84.8594	143.0000
84.8748	121.0000
84.8902	140.0000
84.9056	142.0000
84.9210	171.0000
84.9364	133.0000
84.9518	146.0000
84.9671	132.0000
84.9825	137.0000
84.9979	162.0000
85.0133	142.0000
85.0287	135.0000
85.0441	123.0000
85.0595	138.0000
85.0749	136.0000
85.0903	134.0000
85.1057	134.0000
85.1211	128.0000
85.1365	116.0000
85.1518	142.0000
85.1672	131.0000
85.1826	119.0000
85.1980	138.0000
85.2134	145.0000
85.2288	137.0000
85.2442	148.0000
85.2596	150.0000
85.2750	134.0000
85.2904	145.0000
85.3058	140.0000
85.3211	116.0000
85.3365	131.0000
85.3519	150.0000
85.3673	133.0000
85.3827	136.0000
85.3981	133.0000
85.4135	142.0000
85.4289	134.0000
85.4443	123.0000
85.4597	133.0000
85.4751	126.0000
85.4905	127.0000
85.5058	145.0000
85.5212	142.0000
85.5366	120.0000
85.5520	158.0000
85.5674	158.0000
85.5828	133.0000
85.5982	131.0000
85.6136	125.0000
85.6290	150.0000
85.6444	132.0000
85.6598	133.0000
85.6752	146.0000
85.6905	127.0000
85.7059	137.0000
85.7213	132.0000
85.7367	125.0000
85.7521	156.0000
85.7675	150.0000
85.7829	125.0000
85.7983	152.0000
85.8137	135.0000
85.8291	123.0000
85.8445	131.0000
85.8598	145.0000
85.8752	128.0000
85.8906	136.0000
85.9060	132.0000
85.9214	142.0000
85.9368	144.0000
85.9522	147.0000
85.9676	141.0000
85.9830	144.0000
85.9984	128.0000
86.0138	157.0000
86.0292	123.0000
86.0445	120.0000
86.0599	144.0000
86.0753	109.0000
86.0907	112.0000
86.1061	136.0000
86.1215	134.0000
86.1369	121.0000
86.1523	138.0000
86.1677	135.0000
86.1831	139.0000
86.1985	125.0000
86.2139	111.0000
86.2292	133.0000
86.2446	129.0000
86.2600	137.0000
86.2754	105.0000
86.2908	131.0000
86.3062	132.0000
86.3216	133.0000
86.3370	129.0000
86.3524	130.0000
86.3678	142.0000
86.3832	135.0000
86.3985	139.0000
86.4139	114.0000
86.4293	144.0000
86.4447	134.0000
86.4601	107.0000
86.4755	114.0000
86.4909	130.0000
86.5063	135.0000
86.5217	130.0000
86.5371	121.0000
86.5525	115.0000
86.5679	130.0000
86.5832	133.0000
86.5986	127.0000
86.6140	127.0000
86.6294	133.0000
86.6448	130.0000
86.6602	145.0000
86.6756	135.0000
86.6910	130.0000
86.7064	129.0000
86.7218	130.0000
86.7372	135.0000
86.7526	135.0000
86.7679	137.0000
86.7833	142.0000
86.7987	123.0000
86.8141	125.0000
86.8295	151.0000
86.8449	156.0000
86.8603	142.0000
86.8757	157.0000
86.8911	128.0000
86.9065	128.0000
86.9219	124.0000
86.9372	143.0000
86.9526	120.0000
86.9680	122.0000
86.9834	130.0000
86.9988	135.0000
87.0142	109.0000
87.0296	119.0000
87.0450	133.0000
87.0604	122.0000
87.0758	127.0000
87.0912	131.0000
87.1066	113.0000
87.1219	131.0000
87.1373	116.0000
87.1527	119.0000
87.1681	133.0000
87.1835	116.0000
87.1989	123.0000
87.2143	136.0000
87.2297	131.0000
87.2451	139.0000
87.2605	104.0000
87.2759	114.0000
87.2912	119.0000
87.3066	107.0000
87.3220	125.0000
87.3374	99.0000
87.3528	119.0000
87.3682	126.0000
87.3836	96.0000
87.3990	132.0000
87.4144	114.0000
87.4298	123.0000
87.4452	114.0000
87.4606	108.0000
87.4759	116.0000
87.4913	108.0000
87.5067	124.0000
87.5221	112.0000
87.5375	100.0000
87.5529	111.0000
87.5683	108.0000
87.5837	115.0000
87.5991	113.0000
87.6145	106.0000
87.6299	122.0000
87.6453	116.0000
87.6606	135.0000
87.6760	119.0000
87.6914	119.0000
87.7068	113.0000
87.7222	106.0000
87.7376	98.0000
87.7530	134.0000
87.7684	131.0000
87.7838	111.0000
87.7992	124.0000
87.8146	117.0000
87.8299	117.0000
87.8453	119.0000
87.8607	130.0000
87.8761	106.0000
87.8915	119.0000
87.9069	102.0000
87.9223	113.0000
87.9377	109.0000
87.9531	119.0000
87.9685	124.0000
87.9839	95.0000
87.9993	115.0000
88.0146	110.0000
88.0300	112.0000
88.0454	121.0000
88.0608	116.0000
88.0762	115.0000
88.0916	117.0000
88.1070	118.0000
88.1224	110.0000
88.1378	134.0000
88.1532	119.0000
88.1686	108.0000
88.1840	118.0000
88.1993	101.0000
88.2147	109.0000
88.2301	134.0000
88.2455	121.0000
88.2609	125.0000
88.2763	108.0000
88.2917	117.0000
88.3071	92.0000
88.3225	133.0000
88.3379	99.0000
88.3533	118.0000
88.3686	98.0000
88.3840	123.0000
88.3994	123.0000
88.4148	111.0000
88.4302	119.0000
88.4456	109.0000
88.4610	88.0000
88.4764	113.0000
88.4918	127.0000
88.5072	102.0000
88.5226	122.0000
88.5380	127.0000
88.5533	107.0000
88.5687	107.0000
88.5841	105.0000
88.5995	107.0000
88.6149	83.0000
88.6303	118.0000
88.6457	106.0000
88.6611	98.0000
88.6765	102.0000
88.6919	95.0000
88.7073	79.0000
88.7227	75.0000
88.7380	99.0000
88.7534	125.0000
88.7688	104.0000
88.7842	101.0000
88.7996	108.0000
88.8150	103.0000
88.8304	107.0000
88.8458	113.0000
88.8612	80.0000
88.8766	82.0000
88.8920	123.0000
88.9073	103.0000
88.9227	124.0000
88.9381	95.0000
88.9535	95.0000
88.9689	141.0000
88.9843	101.0000
88.9997	100.0000
89.0151	102.0000
89.0305	105.0000
89.0459	108.0000
89.0613	98.0000
89.0767	108.0000
89.0920	100.0000
89.1074	81.0000
89.1228	100.0000
89.1382	112.0000
89.1536	106.0000
89.1690	98.0000
89.1844	110.0000
89.1998	110.0000
89.2152	115.0000
89.2306	100.0000
89.2460	96.0000
89.2614	110.0000
89.2767	103.0000
89.2921	88.0000
89.3075	104.0000
89.3229	107.0000
89.3383	103.0000
89.3537	96.0000
89.3691	106.0000
89.3845	105.0000
89.3999	95.0000
89.4153	100.0000
89.4307	107.0000
89.4460	98.0000
89.4614	85.0000
89.4768	98.0000
89.4922	95.0000
89.5076	98.0000
89.5230	89.0000
89.5384	103.0000
89.5538	120.0000
89.5692	122.0000
89.5846	102.0000
89.6000	96.0000
89.6154	102.0000
89.6307	94.0000
89.6461	99.0000
89.6615	109.0000
89.6769	96.0000
89.6923	111.0000
89.7077	89.0000
89.7231	98.0000
89.7385	101.0000
89.7539	122.0000
89.7693	103.0000
89.7847	94.0000
89.8000	118.0000
89.8154	112.0000
89.8308	79.0000
89.8462	100.0000
89.8616	85.0000
89.8770	86.0000
89.8924	104.0000
89.9078	89.0000
89.9232	108.0000
89.9386	102.0000
89.9540	89.0000
89.9694	121.0000
89.9847	119.0000
90.0001	112.0000
90.0155	103.0000
90.0309	100.0000
90.0463	93.0000
90.0617	110.0000
90.0771	115.0000
90.0925	96.0000
90.1079	104.0000
90.1233	110.0000
90.1387	91.0000
90.1541	112.0000
90.1694	97.0000
90.1848	94.0000
90.2002	94.0000
90.2156	94.0000
90.2310	100.0000
90.2464	94.0000
90.2618	90.0000
90.2772	97.0000
90.2926	99.0000
90.3080	90.0000
90.3234	90.0000
90.3387	100.0000
90.3541	96.0000
90.3695	105.0000
90.3849	104.0000
90.4003	94.0000
90.4157	93.0000
90.4311	98.0000
90.4465	92.0000
90.4619	97.0000
90.4773	115.0000
90.4927	94.0000
90.5081	105.0000
90.5234	89.0000
90.5388	96.0000
90.5542	94.0000
90.5696	107.0000
90.5850	98.0000
90.6004	93.0000
90.6158	97.0000
90.6312	88.0000
90.6466	98.0000
90.6620	87.0000
90.6774	93.0000
90.6928	87.0000
90.7081	96.0000
90.7235	97.0000
90.7389	100.0000
90.7543	92.0000
90.7697	109.0000
90.7851	108.0000
90.8005	94.0000
90.8159	78.0000
90.8313	101.0000
90.8467	104.0000
90.8621	98.0000
90.8774	81.0000
90.8928	91.0000
90.9082	79.0000
90.9236	100.0000
90.9390	108.0000
90.9544	105.0000
90.9698	92.0000
90.9852	110.0000
91.0006	101.0000
91.0160	115.0000
91.0314	105.0000
91.0468	111.0000
91.0621	92.0000
91.0775	104.0000
91.0929	105.0000
91.1083	114.0000
91.1237	94.0000
91.1391	106.0000
91.1545	96.0000
91.1699	100.0000
91.1853	106.0000
91.2007	110.0000
91.2161	104.0000
91.2315	115.0000
91.2468	96.0000
91.2622	107.0000
91.2776	93.0000
91.2930	96.0000
91.3084	89.0000
91.3238	101.0000
91.3392	88.0000
91.3546	89.0000
91.3700	113.0000
91.3854	115.0000
91.4008	97.0000
91.4161	97.0000
91.4315	108.0000
91.4469	104.0000
91.4623	101.0000
91.4777	96.0000
91.4931	120.0000
91.5085	96.0000
91.5239	98.0000
91.5393	99.0000
91.5547	93.0000
91.5701	98.0000
91.5855	107.0000
91.6008	102.0000
91.6162	88.0000
91.6316	103.0000
91.6470	119.0000
91.6624	101.0000
91.6778	114.0000
91.6932	90.0000
91.7086	108.0000
91.7240	111.0000
91.7394	102.0000
91.7548	101.0000
91.7702	104.0000
91.7855	98.0000
91.8009	108.0000
91.8163	114.0000
91.8317	89.0000
91.8471	123.0000
91.8625	87.0000
91.8779	88.0000
91.8933	97.0000
91.9087	105.0000
91.9241	111.0000
91.9395	92.0000
91.9548	111.0000
91.9702	82.0000
91.9856	106.0000
92.0010	106.0000
92.0164	106.0000
92.0318	99.0000
92.0472	104.0000
92.0626	98.0000
92.0780	103.0000
92.0934	82.0000
92.1088	97.0000
92.1242	111.0000
92.1395	91.0000
92.1549	98.0000
92.1703	93.0000
92.1857	90.0000
92.2011	97.0000
92.2165	84.0000
92.2319	109.0000
92.2473	86.0000
92.2627	87.0000
92.2781	104.0000
92.2935	106.0000
92.3088	83.0000
92.3242	92.0000
92.3396	82.0000
92.3550	93.0000
92.3704	99.0000
92.3858	98.0000
92.4012	95.0000
92.4166	108.0000
92.4320	99.0000
92.4474	90.0000
92.4628	89.0000
92.4782	102.0000
92.4935	107.0000
92.5089	79.0000
92.5243	81.0000
92.5397	95.0000
92.5551	83.0000
92.5705	99.0000
92.5859	87.0000
92.6013	86.0000
92.6167	88.0000
92.6321	78.0000
92.6475	88.0000
92.6629	115.0000
92.6782	95.0000
92.6936	82.0000
92.7090	95.0000
92.7244	115.0000
92.7398	71.0000
92.7552	90.0000
92.7706	82.0000
92.7860	79.0000
92.8014	99.0000
92.8168	98.0000
92.8322	92.0000
92.8475	101.0000
92.8629	85.0000
92.8783	94.0000
92.8937	109.0000
92.9091	93.0000
92.9245	97.0000
92.9399	96.0000
92.9553	76.0000
92.9707	101.0000
92.9861	97.0000
93.0015	98.0000
93.0169	97.0000
93.0322	101.0000
93.0476	92.0000
93.0630	102.0000
93.0784	95.0000
93.0938	110.0000
93.1092	94.0000
93.1246	89.0000
93.1400	93.0000
93.1554	84.0000
93.1708	74.0000
93.1862	81.0000
93.2016	77.0000
93.2169	93.0000
93.2323	89.0000
93.2477	86.0000
93.2631	77.0000
93.2785	109.0000
93.2939	96.0000
93.3093	102.0000
93.3247	100.0000
93.3401	101.0000
93.3555	94.0000
93.3709	91.0000
93.3862	98.0000
93.4016	80.0000
93.4170	99.0000
93.4324	88.0000
93.4478	94.0000
93.4632	78.0000
93.4786	87.0000
93.4940	107.0000
93.5094	96.0000
93.5248	90.0000
93.5402	96.0000
93.5556	97.0000
93.5709	88.0000
93.5863	96.0000
93.6017	103.0000
93.6171	122.0000
93.6325	99.0000
93.6479	94.0000
93.6633	88.0000
93.6787	93.0000
93.6941	105.0000
93.7095	92.0000
93.7249	96.0000
93.7403	93.0000
93.7556	111.0000
93.7710	77.0000
93.7864	96.0000
93.8018	86.0000
93.8172	95.0000
93.8326	88.0000
93.8480	91.0000
93.8634	72.0000
93.8788	78.0000
93.8942	101.0000
93.9096	74.0000
93.9249	91.0000
93.9403	97.0000
93.9557	93.0000
93.9711	73.0000
93.9865	114.0000
94.0019	92.0000
94.0173	80.0000
94.0327	90.0000
94.0481	89.0000
94.0635	76.0000
94.0789	73.0000
94.0943	88.0000
94.1096	88.0000
94.1250	72.0000
94.1404	75.0000
94.1558	88.0000
94.1712	93.0000
94.1866	84.0000
94.2020	100.0000
94.2174	77.0000
94.2328	92.0000
94.2482	88.0000
94.2636	101.0000
94.2790	106.0000
94.2943	97.0000
94.3097	84.0000
94.3251	89.0000
94.3405	84.0000
94.3559	88.0000
94.3713	84.0000
94.3867	96.0000
94.4021	80.0000
94.4175	92.0000
94.4329	84.0000
94.4483	83.0000
94.4636	90.0000
94.4790	91.0000
94.4944	91.0000
94.5098	78.0000
94.5252	106.0000
94.5406	92.0000
94.5560	103.0000
94.5714	86.0000
94.5868	89.0000
94.6022	95.0000
94.6176	92.0000
94.6330	97.0000
94.6483	76.0000
94.6637	93.0000
94.6791	81.0000
94.6945	92.0000
94.7099	82.0000
94.7253	90.0000
94.7407	75.0000
94.7561	99.0000
94.7715	71.0000
94.7869	91.0000
94.8023	108.0000
94.8176	99.0000
94.8330	96.0000
94.8484	91.0000
94.8638	71.0000
94.8792	84.0000
94.8946	77.0000
94.9100	94.0000
94.9254	84.0000
94.9408	82.0000
94.9562	87.0000
94.9716	86.0000
94.9870	88.0000
95.0023	90.0000
95.0177	79.0000
95.0331	97.0000
95.0485	79.0000
95.0639	92.0000
95.0793	99.0000
95.0947	90.0000
95.1101	84.0000
95.1255	93.0000
95.1409	98.0000
95.1563	84.0000
95.1717	91.0000
95.1870	87.0000
95.2024	93.0000
95.2178	84.0000
95.2332	94.0000
95.2486	93.0000
95.2640	87.0000
95.2794	72.0000
95.2948	78.0000
95.3102	96.0000
95.3256	103.0000
95.3410	104.0000
95.3563	95.0000
95.3717	100.0000
95.3871	87.0000
95.4025	103.0000
95.4179	79.0000
95.4333	87.0000
95.4487	82.0000
95.4641	76.0000
95.4795	93.0000
95.4949	106.0000
95.5103	85.0000
95.5257	73.0000
95.5410	83.0000
95.5564	91.0000
95.5718	73.0000
95.5872	84.0000
95.6026	87.0000
95.6180	98.0000
95.6334	96.0000
95.6488	104.0000
95.6642	93.0000
95.6796	94.0000
95.6950	82.0000
95.7104	85.0000
95.7257	78.0000
95.7411	94.0000
95.7565	85.0000
95.7719	85.0000
95.7873	92.0000
95.8027	87.0000
95.8181	85.0000
95.8335	79.0000
95.8489	93.0000
95.8643	100.0000
95.8797	99.0000
95.8950	88.0000
95.9104	88.0000
95.9258	87.0000
95.9412	96.0000
95.9566	97.0000
95.9720	88.0000
95.9874	89.0000
96.0028	92.0000
96.0182	96.0000
96.0336	76.0000
96.0490	89.0000
96.0644	82.0000
96.0797	101.0000
96.0951	94.0000
96.1105	76.0000
96.1259	86.0000
96.1413	93.0000
96.1567	89.0000
96.1721	95.0000
96.1875	79.0000
96.2029	94.0000
96.2183	92.0000
96.2337	90.0000
96.2491	101.0000
96.2644	92.0000
96.2798	87.0000
96.2952	93.0000
96.3106	89.0000
96.3260	105.0000
96.3414	93.0000
96.3568	107.0000
96.3722	89.0000
96.3876	73.0000
96.4030	91.0000
96.4184	95.0000
96.4337	92.0000
96.4491	80.0000
96.4645	88.0000
96.4799	85.0000
96.4953	90.0000
96.5107	86.0000
96.5261	74.0000
96.5415	74.0000
96.5569	87.0000
96.5723	101.0000
96.5877	99.0000
96.6031	91.0000
96.6184	96.0000
96.6338	81.0000
96.6492	86.0000
96.6646	89.0000
96.6800	95.0000
96.6954	86.0000
96.7108	91.0000
96.7262	78.0000
96.7416	82.0000
96.7570	78.0000
96.7724	98.0000
96.7878	91.0000
96.8031	88.0000
96.8185	101.0000
96.8339	106.0000
96.8493	83.0000
96.8647	86.0000
96.8801	99.0000
96.8955	98.0000
96.9109	99.0000
96.9263	89.0000
96.9417	69.0000
96.9571	81.0000
96.9724	97.0000
96.9878	86.0000
97.0032	90.0000
97.0186	91.0000
97.0340	83.0000
97.0494	81.0000
97.0648	92.0000
97.0802	104.0000
97.0956	102.0000
97.1110	101.0000
97.1264	91.0000
97.1418	89.0000
97.1571	104.0000
97.1725	77.0000
97.1879	98.0000
97.2033	87.0000
97.2187	80.0000
97.2341	109.0000
97.2495	79.0000
97.2649	94.0000
97.2803	81.0000
97.2957	82.0000
97.3111	84.0000
97.3264	106.0000
97.3418	78.0000
97.3572	93.0000
97.3726	82.0000
97.3880	88.0000
97.4034	80.0000
97.4188	76.0000
97.4342	81.0000
97.4496	83.0000
97.4650	84.0000
97.4804	82.0000
97.4958	100.0000
97.5111	86.0000
97.5265	112.0000
97.5419	90.0000
97.5573	71.0000
97.5727	87.0000
97.5881	93.0000
97.6035	93.0000
97.6189	118.0000
97.6343	96.0000
97.6497	79.0000
97.6651	107.0000
97.6805	84.0000
97.6958	99.0000
97.7112	95.0000
97.7266	111.0000
97.7420	84.0000
97.7574	100.0000
97.7728	101.0000
97.7882	86.0000
97.8036	90.0000
97.8190	108.0000
97.8344	91.0000
97.8498	89.0000
97.8651	118.0000
97.8805	85.0000
97.8959	100.0000
97.9113	88.0000
97.9267	124.0000
97.9421	83.0000
97.9575	93.0000
97.9729	101.0000
97.9883	100.0000
98.0037	88.0000
98.0191	84.0000
98.0345	91.0000
98.0498	102.0000
98.0652	98.0000
98.0806	97.0000
98.0960	93.0000
98.1114	96.0000
98.1268	103.0000
98.1422	85.0000
98.1576	99.0000
98.1730	105.0000
98.1884	118.0000
98.2038	95.0000
98.2192	88.0000
98.2345	93.0000
98.2499	89.0000
98.2653	111.0000
98.2807	87.0000
98.2961	111.0000
98.3115	106.0000
98.3269	100.0000
98.3423	105.0000
98.3577	98.0000
98.3731	107.0000
98.3885	105.0000
98.4038	86.0000
98.4192	118.0000
98.4346	108.0000
98.4500	107.0000
98.4654	121.0000
98.4808	115.0000
98.4962	111.0000
98.5116	104.0000
98.5270	99.0000
98.5424	120.0000
98.5578	122.0000
98.5732	103.0000
98.5885	131.0000
98.6039	103.0000
98.6193	117.0000
98.6347	134.0000
98.6501	97.0000
98.6655	111.0000
98.6809	126.0000
98.6963	118.0000
98.7117	142.0000
98.7271	160.0000
98.7425	139.0000
98.7579	153.0000
98.7732	142.0000
98.7886	137.0000
98.8040	176.0000
98.8194	206.0000
98.8348	180.0000
98.8502	206.0000
98.8656	200.0000
98.8810	217.0000
98.8964	242.0000
98.9118	294.0000
98.9272	292.0000
98.9425	356.0000
98.9579	429.0000
98.9733	601.0000
98.9887	738.0000
99.0041	1043.0000
99.0195	1400.0000
99.0349	1936.0000
99.0503	2517.0000
99.0657	2939.0000
99.0811	2709.0000
99.0965	2039.0000
99.1119	1526.0000
99.1272	992.0000
99.1426	737.0000
99.1580	560.0000
99.1734	484.0000
99.1888	392.0000
99.2042	368.0000
99.2196	328.0000
99.2350	323.0000
99.2504	300.0000
99.2658	309.0000
99.2812	314.0000
99.2966	383.0000
99.3119	418.0000
99.3273	529.0000
99.3427	666.0000
99.3581	875.0000
99.3735	1152.0000
99.3889	1364.0000
99.4043	1520.0000
99.4197	1373.0000
99.4351	1073.0000
99.4505	785.0000
99.4659	563.0000
99.4812	464.0000
99.4966	346.0000
99.5120	240.0000
99.5274	218.0000
99.5428	223.0000
99.5582	203.0000
99.5736	165.0000
99.5890	166.0000
99.6044	151.0000
99.6198	174.0000
99.6352	163.0000
99.6506	168.0000
99.6659	125.0000
99.6813	144.0000
99.6967	151.0000
99.7121	138.0000
99.7275	124.0000
99.7429	127.0000
99.7583	113.0000
99.7737	121.0000
99.7891	115.0000
99.8045	109.0000
99.8199	125.0000
99.8352	126.0000
99.8506	116.0000
99.8660	111.0000
99.8814	102.0000
99.8968	98.0000
99.9122	106.0000
99.9276	105.0000
99.9430	100.0000
99.9584	98.0000
99.9738	83.0000
99.9892	124.0000
100.0046	89.0000
100.0199	117.0000
100.0353	107.0000
